#Data file /home/DATA/sbrieden/BOSS_data_v5/lowz/galaxy_DR12v5_LOWZ_North_t2.txt
#Random file /home/DATA/sbrieden/BOSS_data_v5/lowz/random0_DR12v5_LOWZ_North_t1.txt
#Number of data elements used: 229060
#Number of random elements used: 11334902
#Effective number of data elements weighted by wcol: 233559.000000
#Effective number of random elements weighted by wcol: 11334902.000000
#Effective number of data elements weighted by wcol*wsys: 233559.000000
#Effective number of random elements weighted by wcol*wsys: 11334902.000000
#Effective redshift value from data 0.330499
#Effective redshift value from randoms 0.330082
#Size of the Box 2500.000000 Mpc/h
#Area of the survey used 5826.000000 deg^2
#Value of alpha: 0.020604
#Normalization using data file
#Normalization using density
#Normalization 4.323655
#Shot noise factor 1.000000
#Shot noise value 3689.170998
#Type of Computation: FFT
#Number of grid cells: 1024
#Type of Mass Assigment: TSC
#Type of Yamamoto: GridCenter
#Number of Interlacing steps: 2
#Grid Correction: yes
#Value of Om=0.310000
#Quadrupole as L2
#Octopole as L3
#Hexadecapole as L4
#k-centerbin	 k-eff	 Monopole-Pshotnoise	 Dipole	 Quadrupole	 Octopole	 Hexadecapole	 number of modes	 Pshotnoise
0.005000 0.007385 62108.367790 -10860.814329 -30536.881837 -8265.120294 21170.362274 250 3689.170998
0.015000 0.016012 82424.631434 1688.977651 16515.874097 524.652804 6789.808792 1852 3689.170998
0.025000 0.025646 62925.432145 3391.758534 5901.922711 -1863.912986 -13702.839705 5020 3689.170998
0.035000 0.035469 47713.885410 1181.350004 13137.668799 -302.350117 -5974.954515 9756 3689.170998
0.045000 0.045368 39517.560485 760.049658 13618.016402 574.963760 -6914.275953 16108 3689.170998
0.055000 0.055314 34709.242902 1303.847921 17474.152299 811.827402 415.575481 24064 3689.170998
0.065000 0.065258 28878.097893 268.618820 10972.118539 888.564447 -2372.132684 33396 3689.170998
0.075000 0.075209 24823.306733 526.142228 9503.062958 717.489255 -2267.622386 44596 3689.170998
0.085000 0.085175 22314.491688 333.785498 8410.120233 388.135633 -1228.715145 57124 3689.170998
0.095000 0.095157 17864.120353 515.729681 6638.814184 368.920973 -743.381418 71620 3689.170998
0.105000 0.105162 15404.241641 343.610819 4751.313677 495.061281 947.851777 87552 3689.170998
0.115000 0.115148 13857.711191 104.235364 3730.371630 -99.962673 -431.196378 104524 3689.170998
0.125000 0.125146 12651.439293 134.908889 3484.350106 307.346607 -943.023753 124228 3689.170998
0.135000 0.135146 11470.554801 235.185108 3898.300520 -60.753011 697.697287 144204 3689.170998
0.145000 0.145132 10333.015763 73.941644 3257.662876 296.311395 548.024331 166492 3689.170998
0.155000 0.155114 9358.999710 164.404808 2676.233092 137.203454 688.631950 189964 3689.170998
0.165000 0.165102 8416.825585 102.893768 2097.700753 57.208309 347.181285 215640 3689.170998
0.175000 0.175105 7696.764715 73.919301 1678.775984 58.324993 155.461871 242836 3689.170998
0.185000 0.185097 7229.665988 58.773006 1552.328654 102.255477 387.467407 270556 3689.170998
0.195000 0.195085 6720.925444 50.453906 1487.404806 126.615789 710.232151 301084 3689.170998
0.205000 0.205080 6182.721986 103.050849 1225.485840 24.584648 606.147887 332628 3689.170998
0.215000 0.215092 5633.709950 42.123646 968.666947 123.182161 535.178872 367216 3689.170998
0.225000 0.225099 5280.782812 59.362304 1043.294130 -51.429408 676.501358 400444 3689.170998
0.235000 0.235081 4933.092903 44.828112 899.839487 86.043039 766.812063 436500 3689.170998
0.245000 0.245077 4668.555757 31.115178 468.581465 44.792026 583.224768 475900 3689.170998
0.255000 0.255082 4416.317218 16.501991 464.875807 40.406564 861.857606 514900 3689.170998
0.265000 0.265074 4050.714438 55.911121 255.177401 22.583247 746.417001 555408 3689.170998
0.275000 0.275066 3832.413495 39.371641 245.354705 -52.929323 687.039998 598684 3689.170998
0.285000 0.285066 3652.534616 25.972950 323.713542 60.654373 514.409069 643228 3689.170998
0.295000 0.295058 3473.047133 27.935751 41.377470 42.176153 511.344543 688036 3689.170998
0.305000 0.305062 3195.516322 38.050327 91.381159 6.949612 630.190763 738228 3689.170998
0.315000 0.315069 2975.465815 19.910953 -8.174040 16.222163 605.912556 785044 3689.170998
0.325000 0.325061 2829.516104 22.613840 -108.195081 11.050553 539.356890 835840 3689.170998
0.335000 0.335058 2709.215294 35.355530 -190.826350 14.283200 583.353993 888468 3689.170998
0.345000 0.345042 2587.668554 3.934125 -278.352774 23.497547 566.915265 939556 3689.170998
0.355000 0.355041 2475.567711 30.772835 -325.307484 -19.159771 450.659514 1000444 3689.170998
0.365000 0.365047 2320.140595 14.461508 -271.332929 23.124462 457.355066 1053124 3689.170998
0.375000 0.375041 2258.714052 17.711803 -405.387167 5.069229 454.477297 1113696 3689.170998
0.385000 0.385041 2099.281160 17.693205 -419.367461 5.635874 554.861235 1173172 3689.170998
0.395000 0.395042 2014.972874 22.716826 -356.282721 -19.456872 447.544066 1235836 3689.170998
0.405000 0.405044 1951.950743 11.758497 -439.346260 39.802707 547.549966 1298532 3689.170998
0.415000 0.415047 1815.041041 24.961469 -369.770912 -9.751531 548.996818 1364380 3689.170998
0.425000 0.425042 1752.728737 14.699952 -428.513128 -4.938465 517.764443 1427560 3689.170998
0.435000 0.435034 1674.012446 13.929462 -532.551944 9.903456 560.832090 1498188 3689.170998
0.445000 0.445039 1635.456077 11.517500 -525.188696 6.890020 573.697470 1569052 3689.170998
