#Data file /home/DATA/sbrieden/Patchy_dr12_mocks/postrecon/original/Patchy-Mocks-DR12LOWZ-S-V5C-Portsmouth-mass_f0693b1850s10_0044.dat
#Random file /home/DATA/sbrieden/Patchy_dr12_mocks/postrecon/original/Patchy-Mocks-DR12LOWZ-S-V5C-Portsmouth-mass_f0693b1850s10_0044.ran
#Number of data elements used: 99890
#Number of random elements used: 2003814
#Effective number of data elements weighted by wcol: 99890.000000
#Effective number of random elements weighted by wcol: 2003814.000000
#Effective number of data elements weighted by wcol*wsys: 99890.000000
#Effective number of random elements weighted by wcol*wsys: 2003814.000000
#Effective redshift value from data 0.330666
#Effective redshift value from randoms 0.329801
#Size of the Box 2500.000000 Mpc/h
#Area of the survey used 2501.000000 deg^2
#Value of alpha: 0.049983
#Normalization using data file
#Normalization using density
#Normalization 1.854786
#Shot noise factor 1.000000
#Shot noise value 3667.374478
#Type of Computation: FFT
#Number of grid cells: 512
#Type of Mass Assigment: TSC
#Type of Yamamoto: GridCenter
#Number of Interlacing steps: 2
#Grid Correction: yes
#Value of Om=0.310000
#Quadrupole as L2
#Octopole as L3
#Hexadecapole as L2L2
#k-centerbin	 k-eff	 Monopole-Pshotnoise	 Dipole	 Quadrupole	 Octopole	 Hexadecapole	 number of modes	 Pshotnoise
0.005000 0.007385 35104.853456 -6194.031356 9967.797531 4722.571260 6135.566269 250 3667.374478
0.015000 0.016012 59588.629425 652.961379 4638.768301 -17451.628010 -12923.423910 1852 3667.374478
0.025000 0.025646 48614.070154 3382.581687 9516.872694 8374.242615 -7964.576161 5020 3667.374478
0.035000 0.035469 33268.717687 -102.629934 -5253.722884 -2057.728976 -18.141001 9756 3667.374478
0.045000 0.045368 30640.087497 733.978214 -8232.617990 264.609525 -1961.913274 16108 3667.374478
0.055000 0.055314 23233.015778 702.333558 1837.479840 337.907465 8122.128866 24064 3667.374478
0.065000 0.065258 20375.268254 45.640435 -1773.239662 332.068543 3862.554082 33396 3667.374478
0.075000 0.075209 20021.092482 431.223116 -1097.422358 -1112.737588 294.532335 44596 3667.374478
0.085000 0.085175 16367.710713 375.826191 353.860312 -66.624441 -2703.071904 57124 3667.374478
0.095000 0.095157 13189.213630 412.043652 150.634406 353.053504 94.151702 71620 3667.374478
0.105000 0.105162 11340.883666 43.254298 -476.661758 -0.046022 1021.439057 87552 3667.374478
0.115000 0.115148 10531.325473 181.894560 -785.596769 -266.781683 -441.995037 104524 3667.374478
0.125000 0.125146 9335.704066 116.010894 -640.963769 277.686347 -870.273022 124228 3667.374478
0.135000 0.135146 8224.512626 155.336244 -743.230930 -72.177094 1156.373436 144204 3667.374478
0.145000 0.145132 7437.038275 140.298273 -497.361057 18.075830 778.659584 166492 3667.374478
0.155000 0.155114 6573.823505 61.810665 -767.712732 68.235160 405.609228 189964 3667.374478
0.165000 0.165102 5658.480834 160.692310 -1213.023589 -146.697796 607.216722 215640 3667.374478
0.175000 0.175105 5237.849951 49.159314 -291.881831 41.550490 491.927110 242836 3667.374478
0.185000 0.185097 4986.425426 69.627701 -719.922568 1.481350 669.810745 270556 3667.374478
0.195000 0.195085 4523.428523 51.110576 -1143.589217 37.700541 69.436036 301084 3667.374478
0.205000 0.205080 3997.159105 82.017742 -925.007250 -125.456862 -71.945505 332628 3667.374478
0.215000 0.215092 3754.976577 42.663452 -661.933099 -22.477776 -396.533319 367216 3667.374478
0.225000 0.225099 3491.497835 47.030120 -534.369437 20.942204 112.320364 400444 3667.374478
0.235000 0.235081 3182.016967 71.496110 -673.493502 39.440093 224.613270 436500 3667.374478
0.245000 0.245077 2932.700032 47.212370 -1001.777372 -6.185564 295.714023 475900 3667.374478
0.255000 0.255082 2653.802438 60.824992 -766.298016 -62.131509 152.306940 514900 3667.374478
0.265000 0.265074 2411.940068 32.730842 -719.066992 6.379594 40.762613 555408 3667.374478
0.275000 0.275066 2221.723079 35.233482 -762.659975 22.707215 286.447781 598684 3667.374478
0.285000 0.285066 2206.012528 37.331809 -904.432278 -51.962554 87.752593 643228 3667.374478
0.295000 0.295058 1956.872073 47.483247 -620.631722 18.666238 249.218244 688036 3667.374478
