#Data file /home/DATA/sbrieden/Patchy_dr12_mocks/postrecon/original/Patchy-Mocks-DR12LOWZ-N-V5C-Portsmouth-mass_f0693b1850s10_0083.dat
#Random file /home/DATA/sbrieden/Patchy_dr12_mocks/postrecon/original/Patchy-Mocks-DR12LOWZ-N-V5C-Portsmouth-mass_f0693b1850s10_0083.ran
#Number of data elements used: 234345
#Number of random elements used: 4679108
#Effective number of data elements weighted by wcol: 234345.000000
#Effective number of random elements weighted by wcol: 4679108.000000
#Effective number of data elements weighted by wcol*wsys: 234345.000000
#Effective number of random elements weighted by wcol*wsys: 4679108.000000
#Effective redshift value from data 0.329948
#Effective redshift value from randoms 0.330032
#Size of the Box 2500.000000 Mpc/h
#Area of the survey used 5826.000000 deg^2
#Value of alpha: 0.050062
#Normalization using data file
#Normalization using density
#Normalization 4.342861
#Shot noise factor 1.000000
#Shot noise value 3652.097922
#Type of Computation: FFT
#Number of grid cells: 512
#Type of Mass Assigment: TSC
#Type of Yamamoto: GridCenter
#Number of Interlacing steps: 2
#Grid Correction: yes
#Value of Om=0.310000
#Quadrupole as L2
#Octopole as L3
#Hexadecapole as L2L2
#k-centerbin	 k-eff	 Monopole-Pshotnoise	 Dipole	 Quadrupole	 Octopole	 Hexadecapole	 number of modes	 Pshotnoise
0.005000 0.007385 42802.074513 -2055.039412 4507.964518 11796.753826 6718.410829 250 3652.097922
0.015000 0.016012 49261.668272 -696.943428 -31012.383260 -3498.602638 3602.280813 1852 3652.097922
0.025000 0.025646 49503.050876 402.213746 -20858.891370 -6331.050191 -6572.824441 5020 3652.097922
0.035000 0.035469 36731.001249 1833.647744 -33.443668 -2290.903181 -960.074008 9756 3652.097922
0.045000 0.045368 29950.904606 227.394293 1230.924335 2299.186633 266.373816 16108 3652.097922
0.055000 0.055314 25108.316800 632.402187 809.004593 -942.164558 1943.593750 24064 3652.097922
0.065000 0.065258 22602.696185 121.891283 146.967609 396.627286 2782.544162 33396 3652.097922
0.075000 0.075209 20112.200926 569.808502 111.004795 -104.241222 -1183.193332 44596 3652.097922
0.085000 0.085175 16235.492544 356.791741 -938.111065 -8.149716 -558.957530 57124 3652.097922
0.095000 0.095157 13764.770097 225.700717 -2242.554544 29.672969 -425.491634 71620 3652.097922
0.105000 0.105162 12088.265493 264.347725 -1405.957577 -181.251483 -494.079780 87552 3652.097922
0.115000 0.115148 10260.147431 62.150110 -593.329176 149.194955 100.044002 104524 3652.097922
0.125000 0.125146 9745.095169 187.179342 -1485.836759 -158.117537 862.046893 124228 3652.097922
0.135000 0.135146 8391.308218 142.373544 -312.818349 -8.424852 -61.122999 144204 3652.097922
0.145000 0.145132 7629.347333 123.655630 -778.640430 62.458286 687.821294 166492 3652.097922
0.155000 0.155114 6635.678812 144.454779 -1104.595023 -95.854446 353.558171 189964 3652.097922
0.165000 0.165102 5865.997058 81.417849 -830.214710 -15.737485 -31.818353 215640 3652.097922
0.175000 0.175105 5204.033747 93.483942 -800.640640 -64.914226 -18.641037 242836 3652.097922
0.185000 0.185097 4774.233161 44.518614 -777.623961 118.810817 -194.822096 270556 3652.097922
0.195000 0.195085 4345.582081 94.283999 -1013.332234 -78.997514 86.207293 301084 3652.097922
0.205000 0.205080 4065.348875 39.343494 -766.345916 -24.899942 249.282408 332628 3652.097922
0.215000 0.215092 3669.629731 74.659847 -687.443542 34.495118 261.756333 367216 3652.097922
0.225000 0.225099 3283.474893 50.343252 -820.079851 -21.484357 309.020257 400444 3652.097922
0.235000 0.235081 3016.529410 59.289264 -553.166517 -47.540777 335.455289 436500 3652.097922
0.245000 0.245077 2842.275725 54.502218 -602.482590 -18.970703 166.323754 475900 3652.097922
0.255000 0.255082 2669.875622 38.642959 -806.763514 33.005276 36.251338 514900 3652.097922
0.265000 0.265074 2377.549253 41.624287 -738.083685 -33.949217 345.732483 555408 3652.097922
0.275000 0.275066 2235.662258 38.241617 -664.572032 4.300806 185.533254 598684 3652.097922
0.285000 0.285066 2166.768973 36.536096 -848.032829 -1.888760 315.933402 643228 3652.097922
0.295000 0.295058 1938.247994 45.481081 -806.775858 -31.246962 275.716836 688036 3652.097922
