#Data file /home/DATA/sbrieden/Patchy_dr12_mocks/postrecon/original/Patchy-Mocks-DR12CMASS-N-V6C-Portsmouth-mass_f0784b1850s10_0051.dat
#Random file /home/DATA/sbrieden/Patchy_dr12_mocks/postrecon/original/Patchy-Mocks-DR12CMASS-N-V6C-Portsmouth-mass_f0784b1850s10_0051.ran
#Number of data elements used: 591347
#Number of random elements used: 11779427
#Effective number of data elements weighted by wcol: 591347.000000
#Effective number of random elements weighted by wcol: 11779427.000000
#Effective number of data elements weighted by wcol*wsys: 591347.000000
#Effective number of random elements weighted by wcol*wsys: 11779427.000000
#Effective redshift value from data 0.597585
#Effective redshift value from randoms 0.597954
#Size of the Box 3700.000000 Mpc/h
#Area of the survey used 6851.000000 deg^2
#Value of alpha: 0.050242
#Normalization using data file
#Normalization using density
#Normalization 11.120434
#Shot noise factor 1.000000
#Shot noise value 4952.514879
#Type of Computation: FFT
#Number of grid cells: 512
#Type of Mass Assigment: TSC
#Type of Yamamoto: GridCenter
#Number of Interlacing steps: 2
#Grid Correction: yes
#Value of Om=0.310000
#Quadrupole as L2
#Octopole as L3
#Hexadecapole as L2L2
#k-centerbin	 k-eff	 Monopole-Pshotnoise	 Dipole	 Quadrupole	 Octopole	 Hexadecapole	 number of modes	 Pshotnoise
0.005000 0.007485 51860.673546 -1500.526754 -18372.537758 -14957.946776 -18309.772020 846 4952.514879
0.015000 0.016072 50096.368183 961.889534 -3473.815174 -2352.878148 3547.921033 6012 4952.514879
0.025000 0.025646 46849.608603 591.446465 4276.257017 2309.101601 -284.811294 16172 4952.514879
0.035000 0.035469 34991.711677 467.691043 -4249.715737 189.345976 5156.092202 31764 4952.514879
0.045000 0.045378 28302.518747 479.188131 -3265.697572 -181.111882 1062.153435 52164 4952.514879
0.055000 0.055280 22658.414233 330.616710 -2206.596166 -351.714229 2588.387560 77396 4952.514879
0.065000 0.065232 20029.090467 124.958418 -894.752711 264.616770 2716.574059 108936 4952.514879
0.075000 0.075229 17693.982118 249.932532 -347.785102 -151.799197 1966.625507 144980 4952.514879
0.085000 0.085193 15024.821332 289.597472 -1172.418490 -67.416200 542.519726 184854 4952.514879
0.095000 0.095166 12184.400873 86.251062 -1871.577935 150.498508 67.284382 232260 4952.514879
0.105000 0.105155 10689.785458 135.343630 -1701.694669 -83.043174 245.821223 282884 4952.514879
0.115000 0.115131 9475.481098 50.617988 -1167.243386 -54.879030 322.360341 339084 4952.514879
0.125000 0.125124 9024.509239 100.525504 -1221.261902 -67.858440 -389.299425 401864 4952.514879
0.135000 0.135125 8041.153443 95.359619 -712.364772 -16.704476 -684.611338 468084 4952.514879
0.145000 0.145120 7242.840460 95.352539 -676.315757 28.142099 130.434608 539940 4952.514879
0.155000 0.155118 6142.245022 110.232726 -654.085215 -42.475582 -2.667114 617324 4952.514879
0.165000 0.165105 5541.766612 58.080594 -606.643933 -13.181036 204.275110 697452 4952.514879
0.175000 0.175088 5072.684316 60.601576 -533.562409 18.758175 59.293026 785846 4952.514879
0.185000 0.185089 4659.939850 45.539156 -545.889740 -27.793169 72.233179 879528 4952.514879
0.195000 0.195093 4448.061029 57.484760 -747.572487 -2.824756 -97.307993 976596 4952.514879
0.205000 0.205084 3974.079322 65.567582 -626.381605 7.500843 229.067566 1077212 4952.514879
0.215000 0.215076 3636.179562 63.536481 -634.616736 -13.148631 349.302476 1186908 4952.514879
0.225000 0.225076 3321.836293 42.328126 -723.656337 -3.475948 228.596458 1299452 4952.514879
0.235000 0.235073 3048.050537 40.754023 -559.670617 -1.378270 -16.379660 1417356 4952.514879
0.245000 0.245067 2870.486178 60.772084 -606.631880 -10.976561 60.925458 1539600 4952.514879
0.255000 0.255064 2678.909556 42.096614 -705.714123 11.819165 102.796836 1669820 4952.514879
0.265000 0.265061 2442.319839 44.898080 -711.673912 10.010155 263.167898 1801086 4952.514879
0.275000 0.275060 2292.006493 52.621451 -816.203022 -34.176658 236.494304 1942244 4952.514879
0.285000 0.285062 2110.522936 46.638286 -728.045032 -2.967536 169.768398 2084796 4952.514879
0.295000 0.295057 2048.743200 42.449789 -783.794010 -11.154230 334.897132 2231868 4952.514879
