#Data file /home/DATA/sbrieden/Patchy_dr12_mocks/postrecon/original/Patchy-Mocks-DR12LOWZ-S-V5C-Portsmouth-mass_f0693b1850s10_0012.dat
#Random file /home/DATA/sbrieden/Patchy_dr12_mocks/postrecon/original/Patchy-Mocks-DR12LOWZ-S-V5C-Portsmouth-mass_f0693b1850s10_0012.ran
#Number of data elements used: 100743
#Number of random elements used: 2003544
#Effective number of data elements weighted by wcol: 100743.000000
#Effective number of random elements weighted by wcol: 2003544.000000
#Effective number of data elements weighted by wcol*wsys: 100743.000000
#Effective number of random elements weighted by wcol*wsys: 2003544.000000
#Effective redshift value from data 0.329476
#Effective redshift value from randoms 0.330309
#Size of the Box 2500.000000 Mpc/h
#Area of the survey used 2501.000000 deg^2
#Value of alpha: 0.050137
#Normalization using data file
#Normalization using density
#Normalization 1.864154
#Shot noise factor 1.000000
#Shot noise value 3636.734210
#Type of Computation: FFT
#Number of grid cells: 512
#Type of Mass Assigment: TSC
#Type of Yamamoto: GridCenter
#Number of Interlacing steps: 2
#Grid Correction: yes
#Value of Om=0.310000
#Quadrupole as L2
#Octopole as L3
#Hexadecapole as L2L2
#k-centerbin	 k-eff	 Monopole-Pshotnoise	 Dipole	 Quadrupole	 Octopole	 Hexadecapole	 number of modes	 Pshotnoise
0.005000 0.007385 30718.117119 -7819.631908 12715.262250 -6012.634408 -21753.591467 250 3636.734210
0.015000 0.016012 47846.134960 -1443.036877 -633.524435 4132.109884 11728.231939 1852 3636.734210
0.025000 0.025646 47645.287926 1707.399176 6500.187918 978.858994 -3331.553834 5020 3636.734210
0.035000 0.035469 41387.184904 1292.281576 2664.778525 -121.689340 -3062.246470 9756 3636.734210
0.045000 0.045368 31481.680860 8.463256 -7865.200823 1296.262884 52.494491 16108 3636.734210
0.055000 0.055314 24728.225256 814.056843 -9662.549111 -1234.620114 1754.737465 24064 3636.734210
0.065000 0.065258 20800.452650 563.025214 -3476.439019 -906.079421 1538.865075 33396 3636.734210
0.075000 0.075209 18812.172131 315.338162 -999.457237 -135.017958 4508.573713 44596 3636.734210
0.085000 0.085175 16210.806309 51.375599 -1211.783025 497.388514 -963.113659 57124 3636.734210
0.095000 0.095157 14446.608141 316.368176 -3956.463929 -513.093121 354.482375 71620 3636.734210
0.105000 0.105162 11648.407156 343.219234 -42.603569 -325.876711 -976.698536 87552 3636.734210
0.115000 0.115148 10542.000414 147.274928 -32.418802 172.292047 -354.655730 104524 3636.734210
0.125000 0.125146 9427.003253 124.366799 -1262.481813 64.335721 118.621016 124228 3636.734210
0.135000 0.135146 8586.119251 172.505169 -265.746950 -71.570247 1791.980706 144204 3636.734210
0.145000 0.145132 7400.481369 36.519221 -1072.457695 56.999280 -232.531335 166492 3636.734210
0.155000 0.155114 6484.892375 198.119094 -974.149415 -46.639082 -498.722408 189964 3636.734210
0.165000 0.165102 5587.670457 83.924574 -1068.984406 48.619138 19.565966 215640 3636.734210
0.175000 0.175105 5138.166285 64.468645 -528.224667 -32.500516 1185.252155 242836 3636.734210
0.185000 0.185097 4874.145859 36.875156 -1285.095337 13.943943 246.189983 270556 3636.734210
0.195000 0.195085 4537.961965 88.561420 -897.365961 -82.370794 284.033152 301084 3636.734210
0.205000 0.205080 4035.324618 78.358919 -640.026791 -27.060259 605.675167 332628 3636.734210
0.215000 0.215092 3692.979013 38.458261 -530.920518 64.412858 267.051954 367216 3636.734210
0.225000 0.225099 3448.412055 98.175991 -831.890417 -100.251295 17.904463 400444 3636.734210
0.235000 0.235081 3022.043197 33.124622 -844.524776 22.520847 -25.800987 436500 3636.734210
0.245000 0.245077 2870.509044 13.485177 -680.795296 33.233672 312.694483 475900 3636.734210
0.255000 0.255082 2660.254946 79.326052 -932.658938 -35.834523 222.720800 514900 3636.734210
0.265000 0.265074 2383.288946 35.070751 -721.655326 37.836318 432.933702 555408 3636.734210
0.275000 0.275066 2303.797098 44.254073 -910.491808 -61.457050 306.532195 598684 3636.734210
0.285000 0.285066 2176.195444 33.033147 -817.785926 -41.513938 -59.739531 643228 3636.734210
0.295000 0.295058 1980.031013 54.049811 -621.226182 7.917971 101.007899 688036 3636.734210
