#Data file /home/DATA/sbrieden/Patchy_dr12_mocks/postrecon/original/Patchy-Mocks-DR12CMASS-S-V6C-Portsmouth-mass_f0784b1850s10_0005.dat
#Random file /home/DATA/sbrieden/Patchy_dr12_mocks/postrecon/original/Patchy-Mocks-DR12CMASS-S-V6C-Portsmouth-mass_f0784b1850s10_0005.ran
#Number of data elements used: 211040
#Number of random elements used: 4286169
#Effective number of data elements weighted by wcol: 211040.000000
#Effective number of random elements weighted by wcol: 4286169.000000
#Effective number of data elements weighted by wcol*wsys: 211040.000000
#Effective number of random elements weighted by wcol*wsys: 4286169.000000
#Effective redshift value from data 0.597021
#Effective redshift value from randoms 0.596866
#Size of the Box 3700.000000 Mpc/h
#Area of the survey used 2525.000000 deg^2
#Value of alpha: 0.049352
#Normalization using data file
#Normalization using density
#Normalization 4.009218
#Shot noise factor 1.000000
#Shot noise value 4951.188756
#Type of Computation: FFT
#Number of grid cells: 512
#Type of Mass Assigment: TSC
#Type of Yamamoto: GridCenter
#Number of Interlacing steps: 2
#Grid Correction: yes
#Value of Om=0.310000
#Quadrupole as L2
#Octopole as L3
#Hexadecapole as L2L2
#k-centerbin	 k-eff	 Monopole-Pshotnoise	 Dipole	 Quadrupole	 Octopole	 Hexadecapole	 number of modes	 Pshotnoise
0.005000 0.007485 29286.688515 -921.364300 8676.719044 1954.990179 -2204.223842 846 4951.188756
0.015000 0.016072 47611.056410 -925.535213 -8942.393380 3140.773187 9641.740996 6012 4951.188756
0.025000 0.025646 41275.374895 181.512239 -6687.615070 -1823.106065 1999.206447 16172 4951.188756
0.035000 0.035469 34426.748413 1102.726783 -1254.881425 -539.830091 -6197.481881 31764 4951.188756
0.045000 0.045378 26429.262744 174.901211 -2758.993129 160.725016 -1701.987801 52164 4951.188756
0.055000 0.055280 22993.338120 9.771969 -2183.942919 179.723106 314.192834 77396 4951.188756
0.065000 0.065232 20086.039693 329.059354 -4635.042986 -50.007426 1163.973250 108936 4951.188756
0.075000 0.075229 17310.643893 181.444579 -3172.772959 22.018978 3249.875322 144980 4951.188756
0.085000 0.085193 14294.516591 266.859801 -283.253421 -451.878032 -301.911676 184854 4951.188756
0.095000 0.095166 11879.239491 233.909388 -2561.722837 102.573112 -1204.795580 232260 4951.188756
0.105000 0.105155 9757.672715 98.864818 -1785.918292 -181.010277 -347.917228 282884 4951.188756
0.115000 0.115131 9283.830937 42.539603 -1156.265739 55.292276 -667.341349 339084 4951.188756
0.125000 0.125124 8387.661252 100.014016 -1344.418231 -128.463243 389.262082 401864 4951.188756
0.135000 0.135125 7875.426102 75.578411 -583.208727 88.751074 277.197016 468084 4951.188756
0.145000 0.145120 6899.693488 95.515427 -682.097241 -31.921638 1493.307786 539940 4951.188756
0.155000 0.155118 5940.223113 93.564387 -917.981878 10.639844 826.445727 617324 4951.188756
0.165000 0.165105 5420.883095 58.352733 -1212.143051 -81.963292 -126.101597 697452 4951.188756
0.175000 0.175088 4884.807569 57.807871 -610.571743 34.640284 -13.191115 785846 4951.188756
0.185000 0.185089 4628.188601 40.371687 -848.264329 26.162897 426.747114 879528 4951.188756
0.195000 0.195093 4160.832662 70.676086 -536.693079 -75.340901 377.783900 976596 4951.188756
0.205000 0.205084 3856.229304 53.737064 -553.224167 52.176591 235.047700 1077212 4951.188756
0.215000 0.215076 3528.760091 62.864670 -702.805667 -63.465687 -9.262469 1186908 4951.188756
0.225000 0.225076 3142.248108 50.749907 -777.210383 37.761163 -66.049778 1299452 4951.188756
0.235000 0.235073 2873.295640 44.401716 -701.351156 -30.965703 195.870930 1417356 4951.188756
0.245000 0.245067 2779.790355 46.202330 -622.027686 12.286782 172.714369 1539600 4951.188756
0.255000 0.255064 2625.516316 40.884032 -887.522556 15.528423 596.835878 1669820 4951.188756
0.265000 0.265061 2402.618259 51.288208 -536.897140 -48.838378 239.455412 1801086 4951.188756
0.275000 0.275060 2270.526613 50.005510 -684.075615 17.338852 339.998563 1942244 4951.188756
0.285000 0.285062 2121.830935 45.113400 -738.519656 -26.172859 250.846715 2084796 4951.188756
0.295000 0.295057 1971.964021 43.762037 -717.399367 2.020899 148.195432 2231868 4951.188756
