#Data file /home/DATA/sbrieden/Patchy_dr12_mocks/postrecon/original/Patchy-Mocks-DR12CMASS-N-V6C-Portsmouth-mass_f0784b1850s10_0022.dat
#Random file /home/DATA/sbrieden/Patchy_dr12_mocks/postrecon/original/Patchy-Mocks-DR12CMASS-N-V6C-Portsmouth-mass_f0784b1850s10_0022.ran
#Number of data elements used: 587297
#Number of random elements used: 11778561
#Effective number of data elements weighted by wcol: 587297.000000
#Effective number of random elements weighted by wcol: 11778561.000000
#Effective number of data elements weighted by wcol*wsys: 587297.000000
#Effective number of random elements weighted by wcol*wsys: 11778561.000000
#Effective redshift value from data 0.597773
#Effective redshift value from randoms 0.597781
#Size of the Box 3700.000000 Mpc/h
#Area of the survey used 6851.000000 deg^2
#Value of alpha: 0.049916
#Normalization using data file
#Normalization using density
#Normalization 11.040148
#Shot noise factor 1.000000
#Shot noise value 4963.215348
#Type of Computation: FFT
#Number of grid cells: 512
#Type of Mass Assigment: TSC
#Type of Yamamoto: GridCenter
#Number of Interlacing steps: 2
#Grid Correction: yes
#Value of Om=0.310000
#Quadrupole as L2
#Octopole as L3
#Hexadecapole as L2L2
#k-centerbin	 k-eff	 Monopole-Pshotnoise	 Dipole	 Quadrupole	 Octopole	 Hexadecapole	 number of modes	 Pshotnoise
0.005000 0.007485 37587.491115 -4850.907480 -9160.063208 -390.647707 -2322.595103 846 4963.215348
0.015000 0.016072 47274.960568 -120.632228 4800.806206 2200.757986 9059.066792 6012 4963.215348
0.025000 0.025646 44473.619236 771.369080 2056.423596 -318.564897 606.310501 16172 4963.215348
0.035000 0.035469 34657.467793 811.880429 1105.381702 136.090563 628.689313 31764 4963.215348
0.045000 0.045378 27111.617020 376.913255 -4984.855821 183.856083 2759.521033 52164 4963.215348
0.055000 0.055280 22881.171482 75.204248 -2333.328729 -13.576856 2481.113808 77396 4963.215348
0.065000 0.065232 21062.704012 266.713525 -1625.507123 112.265343 1587.581936 108936 4963.215348
0.075000 0.075229 18518.559395 215.542321 -2356.770007 -201.455629 2067.924972 144980 4963.215348
0.085000 0.085193 14873.872039 233.125961 -988.918093 43.557665 -533.144752 184854 4963.215348
0.095000 0.095166 12119.239193 144.515357 -2090.481617 -46.418342 692.131570 232260 4963.215348
0.105000 0.105155 10537.763979 158.480251 -1078.295537 -129.529030 -519.959888 282884 4963.215348
0.115000 0.115131 9319.224823 121.100425 -407.310212 -94.039233 -111.709144 339084 4963.215348
0.125000 0.125124 8574.107231 86.127725 -563.641756 -51.151798 -575.520916 401864 4963.215348
0.135000 0.135125 7901.329389 60.002100 -233.501731 80.865130 -111.297482 468084 4963.215348
0.145000 0.145120 7056.066094 80.986195 -676.238979 53.446113 -366.690458 539940 4963.215348
0.155000 0.155118 6058.500157 103.557086 -564.104768 -43.614258 227.004657 617324 4963.215348
0.165000 0.165105 5483.739299 52.565917 -473.712652 47.842550 588.961199 697452 4963.215348
0.175000 0.175088 4988.230538 68.679556 -723.504648 -60.530700 276.802893 785846 4963.215348
0.185000 0.185089 4713.612311 48.062123 -622.267105 10.683185 298.065362 879528 4963.215348
0.195000 0.195093 4402.546544 62.972807 -454.976048 -17.094892 143.429121 976596 4963.215348
0.205000 0.205084 3920.157442 50.895708 -750.879804 30.510712 180.786313 1077212 4963.215348
0.215000 0.215076 3638.206584 56.965075 -750.231503 -24.777702 21.182356 1186908 4963.215348
0.225000 0.225076 3315.018990 57.429557 -735.806648 -16.413341 280.253698 1299452 4963.215348
0.235000 0.235073 3029.374485 49.335644 -703.913832 2.501655 327.523259 1417356 4963.215348
0.245000 0.245067 2912.634775 43.278938 -742.703642 -12.641854 142.841737 1539600 4963.215348
0.255000 0.255064 2635.806393 53.460130 -636.934733 -21.955668 197.624844 1669820 4963.215348
0.265000 0.265061 2481.660803 39.706397 -678.504192 20.856614 157.585642 1801086 4963.215348
0.275000 0.275060 2266.260368 58.113744 -719.618884 -12.999352 362.709586 1942244 4963.215348
0.285000 0.285062 2108.862120 40.648781 -800.168175 -2.694404 217.461875 2084796 4963.215348
0.295000 0.295057 2000.931660 41.873540 -752.342683 -10.483400 164.449509 2231868 4963.215348
