#Data file /home/DATA/sbrieden/Patchy_dr12_mocks/postrecon/original/Patchy-Mocks-DR12LOWZ-N-V5C-Portsmouth-mass_f0693b1850s10_0093.dat
#Random file /home/DATA/sbrieden/Patchy_dr12_mocks/postrecon/original/Patchy-Mocks-DR12LOWZ-N-V5C-Portsmouth-mass_f0693b1850s10_0093.ran
#Number of data elements used: 234783
#Number of random elements used: 4681927
#Effective number of data elements weighted by wcol: 234783.000000
#Effective number of random elements weighted by wcol: 4681927.000000
#Effective number of data elements weighted by wcol*wsys: 234783.000000
#Effective number of random elements weighted by wcol*wsys: 4681927.000000
#Effective redshift value from data 0.329987
#Effective redshift value from randoms 0.330236
#Size of the Box 2500.000000 Mpc/h
#Area of the survey used 5826.000000 deg^2
#Value of alpha: 0.050069
#Normalization using data file
#Normalization using density
#Normalization 4.346440
#Shot noise factor 1.000000
#Shot noise value 3647.720543
#Type of Computation: FFT
#Number of grid cells: 512
#Type of Mass Assigment: TSC
#Type of Yamamoto: GridCenter
#Number of Interlacing steps: 2
#Grid Correction: yes
#Value of Om=0.310000
#Quadrupole as L2
#Octopole as L3
#Hexadecapole as L2L2
#k-centerbin	 k-eff	 Monopole-Pshotnoise	 Dipole	 Quadrupole	 Octopole	 Hexadecapole	 number of modes	 Pshotnoise
0.005000 0.007385 41509.795146 -1354.926405 -16489.642705 -13211.792648 -19261.342358 250 3647.720543
0.015000 0.016012 46634.865840 -1050.535992 11300.027659 1930.913815 -3436.186754 1852 3647.720543
0.025000 0.025646 48387.371448 2567.195546 7108.081387 -547.702475 197.045928 5020 3647.720543
0.035000 0.035469 37397.050730 76.449846 1841.947876 3262.712909 12135.582617 9756 3647.720543
0.045000 0.045368 32657.378195 1201.776803 -473.293863 -1788.198620 -4602.913732 16108 3647.720543
0.055000 0.055314 25980.982351 303.468042 -638.764661 851.602225 -4627.024844 24064 3647.720543
0.065000 0.065258 22657.224949 365.233562 -2645.529892 -630.805827 -1840.909210 33396 3647.720543
0.075000 0.075209 19283.610409 316.102206 -450.339912 157.872267 -1936.475718 44596 3647.720543
0.085000 0.085175 15878.706790 572.082434 -229.008680 -231.323006 1306.238356 57124 3647.720543
0.095000 0.095157 13681.552838 182.813316 -1164.297710 207.747897 219.402788 71620 3647.720543
0.105000 0.105162 11586.526853 252.419402 -649.181321 -101.799593 1380.636143 87552 3647.720543
0.115000 0.115148 10338.463951 162.386179 -312.460568 33.413096 -129.773528 104524 3647.720543
0.125000 0.125146 9506.102257 50.041984 -999.339398 -162.774929 -501.497558 124228 3647.720543
0.135000 0.135146 8546.450707 215.682787 -360.605832 18.244946 -233.310670 144204 3647.720543
0.145000 0.145132 7369.553324 55.155666 -587.937136 150.702306 -410.831199 166492 3647.720543
0.155000 0.155114 6518.762647 216.395106 -865.281546 -270.371429 -1013.643757 189964 3647.720543
0.165000 0.165102 5707.820627 58.463846 -232.975791 123.383296 -443.491015 215640 3647.720543
0.175000 0.175105 5116.698900 71.702442 -647.213860 14.712732 174.712067 242836 3647.720543
0.185000 0.185097 4855.902551 62.659192 -812.270867 -26.985413 -147.459432 270556 3647.720543
0.195000 0.195085 4470.624543 68.898265 -843.387687 39.826209 330.560164 301084 3647.720543
0.205000 0.205080 3973.820743 65.886291 -735.046241 -18.433387 177.853130 332628 3647.720543
0.215000 0.215092 3681.422192 45.198779 -914.537302 -1.113105 105.979811 367216 3647.720543
0.225000 0.225099 3332.688856 72.808016 -813.672356 -49.509270 190.369160 400444 3647.720543
0.235000 0.235081 3084.809795 41.655283 -695.892041 -25.602023 115.650824 436500 3647.720543
0.245000 0.245077 2886.716712 43.918517 -681.074138 25.234455 241.911260 475900 3647.720543
0.255000 0.255082 2646.999066 51.864788 -808.233272 -12.544623 185.506671 514900 3647.720543
0.265000 0.265074 2457.692151 35.281511 -823.190939 13.359229 416.941881 555408 3647.720543
0.275000 0.275066 2201.392029 52.585632 -699.054812 -41.096049 297.301445 598684 3647.720543
0.285000 0.285066 2105.803863 31.972141 -762.928880 25.448425 176.009696 643228 3647.720543
0.295000 0.295058 1960.682253 45.036960 -841.420725 -37.980493 261.206432 688036 3647.720543
