#Data file /home/DATA/sbrieden/Patchy_dr12_mocks/postrecon/original/Patchy-Mocks-DR12CMASS-N-V6C-Portsmouth-mass_f0784b1850s10_0052.dat
#Random file /home/DATA/sbrieden/Patchy_dr12_mocks/postrecon/original/Patchy-Mocks-DR12CMASS-N-V6C-Portsmouth-mass_f0784b1850s10_0052.ran
#Number of data elements used: 589952
#Number of random elements used: 11779885
#Effective number of data elements weighted by wcol: 589952.000000
#Effective number of random elements weighted by wcol: 11779885.000000
#Effective number of data elements weighted by wcol*wsys: 589952.000000
#Effective number of random elements weighted by wcol*wsys: 11779885.000000
#Effective redshift value from data 0.597890
#Effective redshift value from randoms 0.597730
#Size of the Box 3700.000000 Mpc/h
#Area of the survey used 6851.000000 deg^2
#Value of alpha: 0.050157
#Normalization using data file
#Normalization using density
#Normalization 11.088171
#Shot noise factor 1.000000
#Shot noise value 4966.619090
#Type of Computation: FFT
#Number of grid cells: 512
#Type of Mass Assigment: TSC
#Type of Yamamoto: GridCenter
#Number of Interlacing steps: 2
#Grid Correction: yes
#Value of Om=0.310000
#Quadrupole as L2
#Octopole as L3
#Hexadecapole as L2L2
#k-centerbin	 k-eff	 Monopole-Pshotnoise	 Dipole	 Quadrupole	 Octopole	 Hexadecapole	 number of modes	 Pshotnoise
0.005000 0.007485 39524.117109 -3010.162126 -22275.835663 -7169.132909 -4804.907066 846 4966.619090
0.015000 0.016072 47943.644244 -1722.098007 -13856.670775 -1732.017875 -7947.566905 6012 4966.619090
0.025000 0.025646 45925.843578 506.035380 -9810.221266 -1167.247315 1335.425222 16172 4966.619090
0.035000 0.035469 36987.365240 950.731395 -3736.010647 -714.513678 -1925.500845 31764 4966.619090
0.045000 0.045378 27396.203194 464.518140 -891.849449 -166.841320 -74.588217 52164 4966.619090
0.055000 0.055280 23496.174040 181.469121 -1341.073819 296.760912 -710.389995 77396 4966.619090
0.065000 0.065232 20254.354068 283.117214 -3158.454451 -476.831198 -885.670642 108936 4966.619090
0.075000 0.075229 17832.885460 158.198630 -1468.322587 66.262641 -377.809840 144980 4966.619090
0.085000 0.085193 15195.697009 283.576955 -1052.873296 -30.513944 1596.688980 184854 4966.619090
0.095000 0.095166 12172.275185 189.001920 -983.252796 62.812475 -27.748954 232260 4966.619090
0.105000 0.105155 10371.783133 78.858740 -1169.372334 -64.285879 -53.213361 282884 4966.619090
0.115000 0.115131 9596.536811 101.793007 -1318.241644 -52.624535 176.323460 339084 4966.619090
0.125000 0.125124 8862.444033 98.922993 -850.342047 20.937724 216.266050 401864 4966.619090
0.135000 0.135125 7839.459610 65.343891 -1066.943386 -23.386454 395.850909 468084 4966.619090
0.145000 0.145120 7228.042227 117.777466 -916.545886 -91.996133 -109.750266 539940 4966.619090
0.155000 0.155118 6171.196499 78.761744 -645.959547 16.967192 19.482812 617324 4966.619090
0.165000 0.165105 5513.557894 74.268865 -660.351397 21.462981 108.084717 697452 4966.619090
0.175000 0.175088 5040.587788 51.741085 -829.092556 -20.236689 88.210958 785846 4966.619090
0.185000 0.185089 4661.136237 52.274501 -598.541582 -10.810323 -135.813441 879528 4966.619090
0.195000 0.195093 4453.263360 44.579406 -578.540492 3.870963 32.163163 976596 4966.619090
0.205000 0.205084 4075.693185 61.954827 -645.805488 -32.263393 -11.006635 1077212 4966.619090
0.215000 0.215076 3696.140506 58.734040 -427.478975 16.453914 66.850430 1186908 4966.619090
0.225000 0.225076 3314.422819 60.236490 -499.808985 2.247852 190.752428 1299452 4966.619090
0.235000 0.235073 3074.427359 41.014759 -800.403529 -6.548386 193.719034 1417356 4966.619090
0.245000 0.245067 2846.265172 58.159800 -673.604483 -21.950401 114.588347 1539600 4966.619090
0.255000 0.255064 2625.777484 45.605950 -621.746561 18.417319 176.785123 1669820 4966.619090
0.265000 0.265061 2479.633889 43.350269 -726.223813 -4.055374 169.385755 1801086 4966.619090
0.275000 0.275060 2278.836771 53.458596 -697.270032 -26.698041 204.873745 1942244 4966.619090
0.285000 0.285062 2160.135228 46.927648 -695.438108 7.114143 253.590024 2084796 4966.619090
0.295000 0.295057 2027.985186 44.982041 -682.846062 -8.876981 336.391455 2231868 4966.619090
