#Data file /home/DATA/sbrieden/Patchy_dr12_mocks/postrecon/original/Patchy-Mocks-DR12CMASS-N-V6C-Portsmouth-mass_f0784b1850s10_0072.dat
#Random file /home/DATA/sbrieden/Patchy_dr12_mocks/postrecon/original/Patchy-Mocks-DR12CMASS-N-V6C-Portsmouth-mass_f0784b1850s10_0072.ran
#Number of data elements used: 588373
#Number of random elements used: 11758802
#Effective number of data elements weighted by wcol: 588373.000000
#Effective number of random elements weighted by wcol: 11758802.000000
#Effective number of data elements weighted by wcol*wsys: 588373.000000
#Effective number of random elements weighted by wcol*wsys: 11758802.000000
#Effective redshift value from data 0.597550
#Effective redshift value from randoms 0.598033
#Size of the Box 3700.000000 Mpc/h
#Area of the survey used 6851.000000 deg^2
#Value of alpha: 0.049874
#Normalization using data file
#Normalization using density
#Normalization 11.026591
#Shot noise factor 1.000000
#Shot noise value 4944.448635
#Type of Computation: FFT
#Number of grid cells: 512
#Type of Mass Assigment: TSC
#Type of Yamamoto: GridCenter
#Number of Interlacing steps: 2
#Grid Correction: yes
#Value of Om=0.310000
#Quadrupole as L2
#Octopole as L3
#Hexadecapole as L2L2
#k-centerbin	 k-eff	 Monopole-Pshotnoise	 Dipole	 Quadrupole	 Octopole	 Hexadecapole	 number of modes	 Pshotnoise
0.005000 0.007485 38395.416538 -753.551649 16543.921597 27596.937878 53548.088963 846 4944.448635
0.015000 0.016072 58144.156834 -1023.479915 2310.116728 206.876702 -2446.724550 6012 4944.448635
0.025000 0.025646 44835.300037 1450.829924 -4996.810990 493.895363 2859.526714 16172 4944.448635
0.035000 0.035469 34692.844246 396.679308 -5245.572369 -1165.548399 -2042.871786 31764 4944.448635
0.045000 0.045378 27455.681484 618.736410 -2451.600504 -214.038213 -3794.508738 52164 4944.448635
0.055000 0.055280 23210.591649 98.573918 -2927.871615 -48.679665 444.491203 77396 4944.448635
0.065000 0.065232 20395.070291 235.633773 -2674.415497 -49.942644 -620.298564 108936 4944.448635
0.075000 0.075229 18285.254946 260.761093 -2474.027832 -196.659530 -207.505105 144980 4944.448635
0.085000 0.085193 14822.048798 189.479199 -1005.398662 22.883823 -119.584402 184854 4944.448635
0.095000 0.095166 12683.104959 175.407610 -1606.442224 -92.221039 -718.681086 232260 4944.448635
0.105000 0.105155 10456.381186 141.258873 -1220.680668 2.533202 357.082264 282884 4944.448635
0.115000 0.115131 9409.180073 92.226228 -1171.821157 -39.077616 387.874819 339084 4944.448635
0.125000 0.125124 8758.032340 56.603756 -1102.843637 58.789738 306.208502 401864 4944.448635
0.135000 0.135125 7872.588580 80.818659 -1345.808215 -42.029645 -123.863109 468084 4944.448635
0.145000 0.145120 7115.735069 119.829341 -1117.832853 -117.663744 -44.444274 539940 4944.448635
0.155000 0.155118 6164.443561 107.723024 -390.895763 -27.253005 -53.232549 617324 4944.448635
0.165000 0.165105 5463.264527 42.134710 -535.293839 45.156615 9.756248 697452 4944.448635
0.175000 0.175088 5043.300250 59.441101 -517.413359 -34.858818 -287.773100 785846 4944.448635
0.185000 0.185089 4679.787487 64.206486 -519.225789 46.993143 383.276858 879528 4944.448635
0.195000 0.195093 4301.482568 36.076773 -459.231574 -18.190133 197.386914 976596 4944.448635
0.205000 0.205084 4035.838560 64.996256 -600.485141 -23.316061 -68.399840 1077212 4944.448635
0.215000 0.215076 3680.578251 53.836213 -613.953571 22.843970 64.587055 1186908 4944.448635
0.225000 0.225076 3306.987114 61.363255 -658.602116 -8.207581 211.957420 1299452 4944.448635
0.235000 0.235073 3071.312658 40.016917 -660.988161 -7.621412 79.814273 1417356 4944.448635
0.245000 0.245067 2874.479180 58.497169 -726.021685 -11.261986 219.187535 1539600 4944.448635
0.255000 0.255064 2624.079732 43.041529 -667.858892 5.184341 400.924844 1669820 4944.448635
0.265000 0.265061 2498.024047 55.172921 -791.609162 -23.315800 307.585999 1801086 4944.448635
0.275000 0.275060 2287.443791 46.450114 -767.161926 1.197238 273.851783 1942244 4944.448635
0.285000 0.285062 2127.497291 39.549179 -677.449540 -0.232516 336.898791 2084796 4944.448635
0.295000 0.295057 2046.074210 46.230605 -812.124821 -2.709219 230.309358 2231868 4944.448635
