#Data file /home/DATA/sbrieden/Patchy_dr12_mocks/postrecon/original/Patchy-Mocks-DR12CMASS-N-V6C-Portsmouth-mass_f0784b1850s10_0026.dat
#Random file /home/DATA/sbrieden/Patchy_dr12_mocks/postrecon/original/Patchy-Mocks-DR12CMASS-N-V6C-Portsmouth-mass_f0784b1850s10_0026.ran
#Number of data elements used: 586946
#Number of random elements used: 11767780
#Effective number of data elements weighted by wcol: 586946.000000
#Effective number of random elements weighted by wcol: 11767780.000000
#Effective number of data elements weighted by wcol*wsys: 586946.000000
#Effective number of random elements weighted by wcol*wsys: 11767780.000000
#Effective redshift value from data 0.597972
#Effective redshift value from randoms 0.597697
#Size of the Box 3700.000000 Mpc/h
#Area of the survey used 6851.000000 deg^2
#Value of alpha: 0.050011
#Normalization using data file
#Normalization using density
#Normalization 11.040643
#Shot noise factor 1.000000
#Shot noise value 4974.577962
#Type of Computation: FFT
#Number of grid cells: 512
#Type of Mass Assigment: TSC
#Type of Yamamoto: GridCenter
#Number of Interlacing steps: 2
#Grid Correction: yes
#Value of Om=0.310000
#Quadrupole as L2
#Octopole as L3
#Hexadecapole as L2L2
#k-centerbin	 k-eff	 Monopole-Pshotnoise	 Dipole	 Quadrupole	 Octopole	 Hexadecapole	 number of modes	 Pshotnoise
0.005000 0.007485 46783.898374 -1845.316848 7932.134207 -3971.837839 -14656.077578 846 4974.577962
0.015000 0.016072 49114.784972 293.962830 5006.565668 2404.576281 4500.653201 6012 4974.577962
0.025000 0.025646 45172.827772 1062.264887 -4573.119190 -607.191214 4404.311798 16172 4974.577962
0.035000 0.035469 35242.808065 341.378871 -6316.273790 -133.851503 4679.645290 31764 4974.577962
0.045000 0.045378 27609.585198 345.361369 -1340.698073 322.941978 -2713.986915 52164 4974.577962
0.055000 0.055280 22009.340547 337.887814 -1193.099656 -324.229143 724.023395 77396 4974.577962
0.065000 0.065232 20574.562887 193.081236 -2461.335467 55.419168 1510.317179 108936 4974.577962
0.075000 0.075229 17423.357872 248.979545 -2492.170148 -291.650918 -1664.517855 144980 4974.577962
0.085000 0.085193 14383.429981 189.628147 -1296.188467 82.294255 -66.734212 184854 4974.577962
0.095000 0.095166 12254.810312 187.763296 -560.344664 -107.666560 86.501282 232260 4974.577962
0.105000 0.105155 10597.102895 110.016944 -727.931459 19.378978 636.388645 282884 4974.577962
0.115000 0.115131 9411.023636 98.256190 -814.907567 29.755966 86.019167 339084 4974.577962
0.125000 0.125124 8605.178847 41.857965 -652.456484 47.723856 332.503296 401864 4974.577962
0.135000 0.135125 8029.574830 75.655226 -1057.150287 5.574021 648.729162 468084 4974.577962
0.145000 0.145120 7240.939174 129.758025 -1250.856972 -121.607721 -156.059075 539940 4974.577962
0.155000 0.155118 6123.332722 69.386903 -694.843782 19.923603 -20.172863 617324 4974.577962
0.165000 0.165105 5567.180562 89.054197 -806.502727 -29.365257 112.917837 697452 4974.577962
0.175000 0.175088 5112.999390 40.823429 -612.268546 -16.515204 171.964704 785846 4974.577962
0.185000 0.185089 4683.823968 64.353096 -462.817398 -17.291815 -0.401614 879528 4974.577962
0.195000 0.195093 4431.836265 53.673541 -687.408708 41.746396 162.635328 976596 4974.577962
0.205000 0.205084 3963.110805 63.801237 -762.449826 -20.888489 120.487995 1077212 4974.577962
0.215000 0.215076 3622.539625 58.918981 -648.927013 -13.534681 190.605281 1186908 4974.577962
0.225000 0.225076 3295.501034 45.742875 -540.828674 10.886527 196.399695 1299452 4974.577962
0.235000 0.235073 3107.612568 45.539360 -691.392731 -8.663183 215.091322 1417356 4974.577962
0.245000 0.245067 2876.287778 46.141065 -644.723225 9.637341 49.963820 1539600 4974.577962
0.255000 0.255064 2699.848381 53.752987 -797.683649 -28.678397 309.839784 1669820 4974.577962
0.265000 0.265061 2512.018519 50.496718 -718.178247 -8.495362 84.045586 1801086 4974.577962
0.275000 0.275060 2306.938861 52.480653 -660.754089 -16.074004 105.407847 1942244 4974.577962
0.285000 0.285062 2173.710842 38.266614 -604.228986 8.165329 224.274792 2084796 4974.577962
0.295000 0.295057 2049.753897 53.862313 -689.953721 -17.962310 281.946104 2231868 4974.577962
