#Data file /home/DATA/sbrieden/Patchy_dr12_mocks/postrecon/original/Patchy-Mocks-DR12CMASS-N-V6C-Portsmouth-mass_f0784b1850s10_0074.dat
#Random file /home/DATA/sbrieden/Patchy_dr12_mocks/postrecon/original/Patchy-Mocks-DR12CMASS-N-V6C-Portsmouth-mass_f0784b1850s10_0074.ran
#Number of data elements used: 588763
#Number of random elements used: 11790336
#Effective number of data elements weighted by wcol: 588763.000000
#Effective number of random elements weighted by wcol: 11790336.000000
#Effective number of data elements weighted by wcol*wsys: 588763.000000
#Effective number of random elements weighted by wcol*wsys: 11790336.000000
#Effective redshift value from data 0.597717
#Effective redshift value from randoms 0.597768
#Size of the Box 3700.000000 Mpc/h
#Area of the survey used 6851.000000 deg^2
#Value of alpha: 0.050001
#Normalization using data file
#Normalization using density
#Normalization 11.071527
#Shot noise factor 1.000000
#Shot noise value 4958.755412
#Type of Computation: FFT
#Number of grid cells: 512
#Type of Mass Assigment: TSC
#Type of Yamamoto: GridCenter
#Number of Interlacing steps: 2
#Grid Correction: yes
#Value of Om=0.310000
#Quadrupole as L2
#Octopole as L3
#Hexadecapole as L2L2
#k-centerbin	 k-eff	 Monopole-Pshotnoise	 Dipole	 Quadrupole	 Octopole	 Hexadecapole	 number of modes	 Pshotnoise
0.005000 0.007485 53161.920040 -5082.862279 -27336.347129 -1471.540862 4564.174268 846 4958.755412
0.015000 0.016072 53719.519551 900.634113 -23354.646622 -1851.988078 17985.966913 6012 4958.755412
0.025000 0.025646 40357.260046 509.244154 -5850.130386 -1484.780132 5202.068590 16172 4958.755412
0.035000 0.035469 32864.324285 666.698784 -4471.176339 -916.083042 -6116.275038 31764 4958.755412
0.045000 0.045378 27158.701100 208.729227 -4315.809287 411.042384 -2797.426772 52164 4958.755412
0.055000 0.055280 23377.289767 287.277042 -5271.261885 -204.057889 1343.407671 77396 4958.755412
0.065000 0.065232 19531.349864 94.144636 -2954.919437 15.336837 1485.717087 108936 4958.755412
0.075000 0.075229 18071.365919 260.355743 -3379.724762 -318.082380 810.398281 144980 4958.755412
0.085000 0.085193 14520.742103 252.465194 -823.828982 -144.516587 546.305937 184854 4958.755412
0.095000 0.095166 12563.562913 179.060799 -1087.400502 -42.475465 -481.040370 232260 4958.755412
0.105000 0.105155 10433.144816 103.139569 -709.412855 108.613422 509.406459 282884 4958.755412
0.115000 0.115131 9591.098016 77.588099 -906.597875 -45.789275 186.531925 339084 4958.755412
0.125000 0.125124 8610.577603 84.132656 -1038.493014 -50.749065 135.396789 401864 4958.755412
0.135000 0.135125 8211.368553 101.390240 -881.653163 -47.175043 -9.085401 468084 4958.755412
0.145000 0.145120 7082.927951 102.265418 -613.366325 11.461416 169.285888 539940 4958.755412
0.155000 0.155118 6194.059074 70.181271 -642.150019 -14.193476 -246.363250 617324 4958.755412
0.165000 0.165105 5580.167585 74.032407 -671.131170 13.091594 405.735818 697452 4958.755412
0.175000 0.175088 5099.509155 44.127978 -763.139336 16.823213 364.418617 785846 4958.755412
0.185000 0.185089 4797.322888 60.258891 -726.317578 -43.525457 -46.084405 879528 4958.755412
0.195000 0.195093 4502.939364 59.718017 -644.864300 -8.072045 -64.261971 976596 4958.755412
0.205000 0.205084 4039.339356 59.770990 -614.519480 -7.726384 7.942033 1077212 4958.755412
0.215000 0.215076 3715.970912 62.343913 -638.188888 -5.173514 229.824937 1186908 4958.755412
0.225000 0.225076 3330.523617 58.672712 -452.003291 -12.813819 162.410771 1299452 4958.755412
0.235000 0.235073 3116.315239 40.463608 -555.733263 2.756923 61.643486 1417356 4958.755412
0.245000 0.245067 2907.786241 47.212154 -688.878453 -0.063499 95.730028 1539600 4958.755412
0.255000 0.255064 2659.608673 52.204396 -678.046750 -3.917635 -100.795622 1669820 4958.755412
0.265000 0.265061 2482.989964 46.879564 -776.118100 -7.421556 27.528915 1801086 4958.755412
0.275000 0.275060 2324.290174 48.743450 -651.327155 -10.665157 147.695632 1942244 4958.755412
0.285000 0.285062 2214.265795 47.356211 -609.142469 -7.955619 111.433469 2084796 4958.755412
0.295000 0.295057 2018.409419 49.731153 -651.951973 6.048152 299.865641 2231868 4958.755412
