#Data file /home/DATA/sbrieden/Patchy_dr12_mocks/postrecon/original/Patchy-Mocks-DR12LOWZ-S-V5C-Portsmouth-mass_f0693b1850s10_0072.dat
#Random file /home/DATA/sbrieden/Patchy_dr12_mocks/postrecon/original/Patchy-Mocks-DR12LOWZ-S-V5C-Portsmouth-mass_f0693b1850s10_0072.ran
#Number of data elements used: 101341
#Number of random elements used: 2006200
#Effective number of data elements weighted by wcol: 101341.000000
#Effective number of random elements weighted by wcol: 2006200.000000
#Effective number of data elements weighted by wcol*wsys: 101341.000000
#Effective number of random elements weighted by wcol*wsys: 2006200.000000
#Effective redshift value from data 0.330644
#Effective redshift value from randoms 0.329815
#Size of the Box 2500.000000 Mpc/h
#Area of the survey used 2501.000000 deg^2
#Value of alpha: 0.050597
#Normalization using data file
#Normalization using density
#Normalization 1.880316
#Shot noise factor 1.000000
#Shot noise value 3663.017164
#Type of Computation: FFT
#Number of grid cells: 512
#Type of Mass Assigment: TSC
#Type of Yamamoto: GridCenter
#Number of Interlacing steps: 2
#Grid Correction: yes
#Value of Om=0.310000
#Quadrupole as L2
#Octopole as L3
#Hexadecapole as L2L2
#k-centerbin	 k-eff	 Monopole-Pshotnoise	 Dipole	 Quadrupole	 Octopole	 Hexadecapole	 number of modes	 Pshotnoise
0.005000 0.007385 47048.801507 -9917.568373 -7527.940498 6347.216941 8555.873466 250 3663.017164
0.015000 0.016012 52964.870174 1827.004448 1001.740775 -4900.007116 -26134.656157 1852 3663.017164
0.025000 0.025646 42152.225555 1682.669380 11208.473664 -913.075965 -3326.624252 5020 3663.017164
0.035000 0.035469 35712.173939 40.681917 -2781.359214 593.423456 -195.598389 9756 3663.017164
0.045000 0.045368 32753.583125 745.396714 -3694.817210 -110.968890 1099.993038 16108 3663.017164
0.055000 0.055314 25665.559916 870.714896 -1592.241051 -967.538336 -4988.537902 24064 3663.017164
0.065000 0.065258 21706.437802 49.212297 -549.315757 255.694681 -628.810010 33396 3663.017164
0.075000 0.075209 19156.243691 485.932070 -3008.909956 438.306544 2370.167552 44596 3663.017164
0.085000 0.085175 16256.881865 511.409760 -1068.380529 -775.434403 -962.849379 57124 3663.017164
0.095000 0.095157 13497.297082 52.830749 -1483.888962 469.344530 -949.931423 71620 3663.017164
0.105000 0.105162 11530.771941 356.649273 -1024.134032 -146.520553 -48.701527 87552 3663.017164
0.115000 0.115148 9860.337929 137.616779 -1240.392537 -183.499126 557.339599 104524 3663.017164
0.125000 0.125146 9485.539023 107.272805 -787.474236 -118.862702 -721.494683 124228 3663.017164
0.135000 0.135146 8247.054951 131.403537 170.876160 -68.097961 -202.593028 144204 3663.017164
0.145000 0.145132 7377.460439 158.162091 -1011.798255 24.948689 -309.854297 166492 3663.017164
0.155000 0.155114 6499.597159 89.436939 -1030.027137 13.242914 -480.538334 189964 3663.017164
0.165000 0.165102 5643.703028 110.723615 -799.757173 -11.452006 -278.169478 215640 3663.017164
0.175000 0.175105 5306.681254 50.397120 -432.438360 -13.841028 74.607888 242836 3663.017164
0.185000 0.185097 4967.189104 100.658383 -378.638095 104.519406 556.425203 270556 3663.017164
0.195000 0.195085 4484.179987 13.697150 -945.163609 18.049261 386.909893 301084 3663.017164
0.205000 0.205080 4049.011913 109.047598 -906.908788 -28.989100 498.384351 332628 3663.017164
0.215000 0.215092 3674.493630 60.380335 -565.050482 -158.828843 155.107306 367216 3663.017164
0.225000 0.225099 3300.288485 64.315473 -451.073193 42.449630 123.384659 400444 3663.017164
0.235000 0.235081 3045.510470 36.253637 -705.769075 57.695430 263.245283 436500 3663.017164
0.245000 0.245077 2887.585813 26.674666 -898.438799 7.449635 80.604789 475900 3663.017164
0.255000 0.255082 2676.366846 54.954170 -858.639049 -58.538940 212.817595 514900 3663.017164
0.265000 0.265074 2457.628150 47.377339 -744.249116 2.051568 243.043113 555408 3663.017164
0.275000 0.275066 2331.285989 31.640061 -928.206682 13.227813 365.770718 598684 3663.017164
0.285000 0.285066 2154.391133 52.300354 -804.417730 -23.286094 306.394993 643228 3663.017164
0.295000 0.295058 1997.896054 44.082292 -720.101663 -23.530071 357.643622 688036 3663.017164
