#Data file /home/DATA/sbrieden/Patchy_dr12_mocks/postrecon/original/Patchy-Mocks-DR12LOWZ-N-V5C-Portsmouth-mass_f0693b1850s10_0041.dat
#Random file /home/DATA/sbrieden/Patchy_dr12_mocks/postrecon/original/Patchy-Mocks-DR12LOWZ-N-V5C-Portsmouth-mass_f0693b1850s10_0041.ran
#Number of data elements used: 236287
#Number of random elements used: 4678320
#Effective number of data elements weighted by wcol: 236287.000000
#Effective number of random elements weighted by wcol: 4678320.000000
#Effective number of data elements weighted by wcol*wsys: 236287.000000
#Effective number of random elements weighted by wcol*wsys: 4678320.000000
#Effective redshift value from data 0.330500
#Effective redshift value from randoms 0.329810
#Size of the Box 2500.000000 Mpc/h
#Area of the survey used 5826.000000 deg^2
#Value of alpha: 0.050559
#Normalization using data file
#Normalization using density
#Normalization 4.381693
#Shot noise factor 1.000000
#Shot noise value 3663.785562
#Type of Computation: FFT
#Number of grid cells: 512
#Type of Mass Assigment: TSC
#Type of Yamamoto: GridCenter
#Number of Interlacing steps: 2
#Grid Correction: yes
#Value of Om=0.310000
#Quadrupole as L2
#Octopole as L3
#Hexadecapole as L2L2
#k-centerbin	 k-eff	 Monopole-Pshotnoise	 Dipole	 Quadrupole	 Octopole	 Hexadecapole	 number of modes	 Pshotnoise
0.005000 0.007385 49796.183881 -177.519345 -13118.399221 180.643438 -6529.442095 250 3663.785562
0.015000 0.016012 49557.546012 -1533.175898 -8592.112133 -4115.482738 -2235.292256 1852 3663.785562
0.025000 0.025646 38474.938538 396.300947 -11179.337672 187.745288 1249.141178 5020 3663.785562
0.035000 0.035469 39290.157524 761.887271 -11230.540398 -1949.428411 5257.128960 9756 3663.785562
0.045000 0.045368 33296.697966 884.253667 -1394.169049 -985.590771 -1450.204196 16108 3663.785562
0.055000 0.055314 24975.379345 749.473237 -1598.339946 -543.640665 -2180.420049 24064 3663.785562
0.065000 0.065258 22743.061556 96.278388 1734.065028 -268.378390 -2647.988094 33396 3663.785562
0.075000 0.075209 19603.750008 497.349665 -24.531706 363.639421 -245.196860 44596 3663.785562
0.085000 0.085175 16279.170547 498.900186 312.051367 126.352072 2573.938373 57124 3663.785562
0.095000 0.095157 13245.744304 177.501508 -482.446728 28.475670 -882.506508 71620 3663.785562
0.105000 0.105162 11243.926851 311.178362 71.965193 -299.371570 -431.584242 87552 3663.785562
0.115000 0.115148 10054.926885 59.903376 -512.899599 70.867324 -1773.592184 104524 3663.785562
0.125000 0.125146 8932.288645 193.286115 -92.394969 113.086193 -163.083792 124228 3663.785562
0.135000 0.135146 8233.662731 47.254068 -657.885113 -49.133673 -696.461403 144204 3663.785562
0.145000 0.145132 7738.742839 102.299070 -753.933211 125.229523 -477.178472 166492 3663.785562
0.155000 0.155114 6650.882036 169.984379 -401.526028 -115.255304 195.782631 189964 3663.785562
0.165000 0.165102 5712.305267 126.029802 -783.040062 -50.218628 220.797210 215640 3663.785562
0.175000 0.175105 5213.020218 49.594039 -548.520954 45.655907 64.193940 242836 3663.785562
0.185000 0.185097 4664.300981 58.643415 -517.102671 52.533657 150.615834 270556 3663.785562
0.195000 0.195085 4531.220253 57.227323 -726.101151 6.720097 204.372203 301084 3663.785562
0.205000 0.205080 4078.856318 84.146731 -840.820116 -87.532627 158.746950 332628 3663.785562
0.215000 0.215092 3651.855036 67.259818 -654.126509 -6.087841 205.203365 367216 3663.785562
0.225000 0.225099 3306.905865 34.931834 -721.088640 7.741088 215.865843 400444 3663.785562
0.235000 0.235081 3136.259469 54.910350 -667.575480 -26.780259 44.519732 436500 3663.785562
0.245000 0.245077 2908.362805 59.236425 -583.525773 -18.665436 56.299233 475900 3663.785562
0.255000 0.255082 2533.598380 54.792343 -576.832187 25.796517 200.220661 514900 3663.785562
0.265000 0.265074 2339.640768 33.507043 -701.354840 -3.442076 265.793614 555408 3663.785562
0.275000 0.275066 2237.824625 35.313400 -657.863513 -35.494354 22.509982 598684 3663.785562
0.285000 0.285066 2086.611721 30.944775 -791.543510 13.964664 65.861219 643228 3663.785562
0.295000 0.295058 1999.551079 44.058903 -740.257270 -11.501781 120.772777 688036 3663.785562
