#Data file /home/DATA/sbrieden/Patchy_dr12_mocks/postrecon/original/Patchy-Mocks-DR12LOWZ-N-V5C-Portsmouth-mass_f0693b1850s10_0070.dat
#Random file /home/DATA/sbrieden/Patchy_dr12_mocks/postrecon/original/Patchy-Mocks-DR12LOWZ-N-V5C-Portsmouth-mass_f0693b1850s10_0070.ran
#Number of data elements used: 232073
#Number of random elements used: 4677070
#Effective number of data elements weighted by wcol: 232073.000000
#Effective number of random elements weighted by wcol: 4677070.000000
#Effective number of data elements weighted by wcol*wsys: 232073.000000
#Effective number of random elements weighted by wcol*wsys: 4677070.000000
#Effective redshift value from data 0.330163
#Effective redshift value from randoms 0.330031
#Size of the Box 2500.000000 Mpc/h
#Area of the survey used 5826.000000 deg^2
#Value of alpha: 0.049678
#Normalization using data file
#Normalization using density
#Normalization 4.304967
#Shot noise factor 1.000000
#Shot noise value 3658.247902
#Type of Computation: FFT
#Number of grid cells: 512
#Type of Mass Assigment: TSC
#Type of Yamamoto: GridCenter
#Number of Interlacing steps: 2
#Grid Correction: yes
#Value of Om=0.310000
#Quadrupole as L2
#Octopole as L3
#Hexadecapole as L2L2
#k-centerbin	 k-eff	 Monopole-Pshotnoise	 Dipole	 Quadrupole	 Octopole	 Hexadecapole	 number of modes	 Pshotnoise
0.005000 0.007385 40791.189504 -8093.582858 -32542.821830 -18843.068916 -10643.106726 250 3658.247902
0.015000 0.016012 59935.622735 -3860.931510 -10103.507776 6085.868215 11310.974368 1852 3658.247902
0.025000 0.025646 59551.077550 2714.952798 -12122.389403 -2253.942501 1982.072449 5020 3658.247902
0.035000 0.035469 39020.961041 1182.112290 -9946.003465 -701.649062 17608.811847 9756 3658.247902
0.045000 0.045368 28772.457681 1433.953324 2418.572554 -948.229154 1044.476530 16108 3658.247902
0.055000 0.055314 24607.411054 -72.353458 1169.108362 -199.336715 -1466.839925 24064 3658.247902
0.065000 0.065258 23431.591090 452.465796 -358.523836 879.282485 -343.077384 33396 3658.247902
0.075000 0.075209 19375.170616 486.146331 -835.347442 -289.580757 1703.287369 44596 3658.247902
0.085000 0.085175 15940.158142 272.347336 -1982.078733 0.061827 -1691.597339 57124 3658.247902
0.095000 0.095157 12898.986571 420.978639 -364.686354 -353.441070 1206.970720 71620 3658.247902
0.105000 0.105162 10946.169566 109.389920 -76.940828 175.825628 506.917870 87552 3658.247902
0.115000 0.115148 10572.866375 120.284619 -831.803906 89.333213 62.846876 104524 3658.247902
0.125000 0.125146 9661.022370 157.612036 -1405.588713 -255.531913 -572.738664 124228 3658.247902
0.135000 0.135146 8582.831333 155.181700 -383.472587 79.647377 -866.150959 144204 3658.247902
0.145000 0.145132 7302.963365 139.368927 -409.051627 -9.031925 776.917623 166492 3658.247902
0.155000 0.155114 6482.546172 108.576463 -680.140056 19.358140 186.538725 189964 3658.247902
0.165000 0.165102 5698.424583 130.732603 -706.213394 -81.597467 261.129341 215640 3658.247902
0.175000 0.175105 4979.294860 71.726178 -667.163886 73.520040 358.534162 242836 3658.247902
0.185000 0.185097 4725.616320 44.288806 -502.488770 -62.236875 315.242799 270556 3658.247902
0.195000 0.195085 4396.737822 59.368805 -537.965752 71.971578 -99.370539 301084 3658.247902
0.205000 0.205080 3974.417000 99.646282 -841.090276 -59.554188 588.992038 332628 3658.247902
0.215000 0.215092 3593.772033 48.340541 -673.390507 -45.585999 15.042676 367216 3658.247902
0.225000 0.225099 3253.007032 47.104507 -782.348094 41.881178 -50.202549 400444 3658.247902
0.235000 0.235081 3029.054270 19.551909 -689.965962 19.386820 221.095758 436500 3658.247902
0.245000 0.245077 2850.300802 64.125184 -656.832886 -25.557634 134.083055 475900 3658.247902
0.255000 0.255082 2647.656707 45.786212 -795.517184 -6.387073 414.132368 514900 3658.247902
0.265000 0.265074 2372.265028 50.868463 -836.880465 -24.550988 193.783851 555408 3658.247902
0.275000 0.275066 2287.976084 36.070739 -810.974882 -10.132018 -1.579513 598684 3658.247902
0.285000 0.285066 2094.383813 31.051498 -842.910457 -6.382138 166.829397 643228 3658.247902
0.295000 0.295058 1993.788135 33.500869 -825.386867 15.151119 146.297994 688036 3658.247902
