#Data file /home/DATA/sbrieden/Patchy_dr12_mocks/postrecon/original/Patchy-Mocks-DR12LOWZ-S-V5C-Portsmouth-mass_f0693b1850s10_0052.dat
#Random file /home/DATA/sbrieden/Patchy_dr12_mocks/postrecon/original/Patchy-Mocks-DR12LOWZ-S-V5C-Portsmouth-mass_f0693b1850s10_0052.ran
#Number of data elements used: 98351
#Number of random elements used: 2000702
#Effective number of data elements weighted by wcol: 98351.000000
#Effective number of random elements weighted by wcol: 2000702.000000
#Effective number of data elements weighted by wcol*wsys: 98351.000000
#Effective number of random elements weighted by wcol*wsys: 2000702.000000
#Effective redshift value from data 0.330490
#Effective redshift value from randoms 0.329741
#Size of the Box 2500.000000 Mpc/h
#Area of the survey used 2501.000000 deg^2
#Value of alpha: 0.049235
#Normalization using data file
#Normalization using density
#Normalization 1.825188
#Shot noise factor 1.000000
#Shot noise value 3651.778390
#Type of Computation: FFT
#Number of grid cells: 512
#Type of Mass Assigment: TSC
#Type of Yamamoto: GridCenter
#Number of Interlacing steps: 2
#Grid Correction: yes
#Value of Om=0.310000
#Quadrupole as L2
#Octopole as L3
#Hexadecapole as L2L2
#k-centerbin	 k-eff	 Monopole-Pshotnoise	 Dipole	 Quadrupole	 Octopole	 Hexadecapole	 number of modes	 Pshotnoise
0.005000 0.007385 37604.145958 -8216.098338 -5526.896092 11588.924657 726.692380 250 3651.778390
0.015000 0.016012 47247.953614 -3572.223287 88.284450 4445.118278 12459.346674 1852 3651.778390
0.025000 0.025646 49423.237408 2515.901705 -1841.152885 3760.113223 23621.874986 5020 3651.778390
0.035000 0.035469 39921.473933 883.158641 -13862.855756 -5776.770310 -2167.826280 9756 3651.778390
0.045000 0.045368 27168.904663 969.769173 -2278.816747 308.285681 -3078.940542 16108 3651.778390
0.055000 0.055314 24586.786389 92.884698 -7169.179651 1048.239259 732.385840 24064 3651.778390
0.065000 0.065258 23815.203757 207.198839 -7886.920579 -1289.208883 4910.903756 33396 3651.778390
0.075000 0.075209 18982.507219 699.709705 -1537.778079 -377.164548 -321.031737 44596 3651.778390
0.085000 0.085175 16723.049836 280.164790 -2403.408280 -240.440987 -1206.074329 57124 3651.778390
0.095000 0.095157 12670.093807 298.407287 -644.052662 329.917776 -357.719225 71620 3651.778390
0.105000 0.105162 10904.517935 217.875820 -1837.678594 17.497734 2264.082402 87552 3651.778390
0.115000 0.115148 9903.255002 54.353875 -1567.753037 -119.668882 671.313677 104524 3651.778390
0.125000 0.125146 9630.406788 134.525229 -686.624251 -220.661294 -36.471722 124228 3651.778390
0.135000 0.135146 8226.311715 194.555580 -168.097976 -67.982674 1202.267416 144204 3651.778390
0.145000 0.145132 7539.488465 64.560155 -805.203958 145.107205 -329.021933 166492 3651.778390
0.155000 0.155114 6526.209998 179.399436 -894.329258 -154.565045 98.002398 189964 3651.778390
0.165000 0.165102 5550.713895 100.108401 -960.135235 68.716700 -85.624757 215640 3651.778390
0.175000 0.175105 5004.230305 54.721918 -1047.450939 -35.304958 66.675104 242836 3651.778390
0.185000 0.185097 4593.299049 111.857654 -269.675489 -31.474256 271.551404 270556 3651.778390
0.195000 0.195085 4268.936760 8.559341 -966.422303 148.870817 835.034625 301084 3651.778390
0.205000 0.205080 3984.517326 67.917070 -687.469166 -127.629762 766.419064 332628 3651.778390
0.215000 0.215092 3540.813401 85.083619 -733.789467 83.608084 863.629863 367216 3651.778390
0.225000 0.225099 3259.608997 12.721191 -1062.572164 -38.922477 297.710958 400444 3651.778390
0.235000 0.235081 3101.291110 74.731805 -812.296021 -69.275241 319.151010 436500 3651.778390
0.245000 0.245077 2803.421242 51.600397 -668.660735 -45.167014 185.205130 475900 3651.778390
0.255000 0.255082 2576.258505 38.247456 -469.029188 2.634891 199.902903 514900 3651.778390
0.265000 0.265074 2471.804475 27.171922 -739.462258 92.635340 330.834314 555408 3651.778390
0.275000 0.275066 2201.336341 62.031782 -876.432380 -41.175445 369.789277 598684 3651.778390
0.285000 0.285066 2048.434834 30.087345 -749.712255 -49.690370 224.645739 643228 3651.778390
0.295000 0.295058 1992.982598 35.473961 -575.719216 -5.244165 83.802653 688036 3651.778390
