#Data file /home/DATA/sbrieden/Patchy_dr12_mocks/postrecon/original/Patchy-Mocks-DR12LOWZ-N-V5C-Portsmouth-mass_f0693b1850s10_0059.dat
#Random file /home/DATA/sbrieden/Patchy_dr12_mocks/postrecon/original/Patchy-Mocks-DR12LOWZ-N-V5C-Portsmouth-mass_f0693b1850s10_0059.ran
#Number of data elements used: 234288
#Number of random elements used: 4683691
#Effective number of data elements weighted by wcol: 234288.000000
#Effective number of random elements weighted by wcol: 4683691.000000
#Effective number of data elements weighted by wcol*wsys: 234288.000000
#Effective number of random elements weighted by wcol*wsys: 4683691.000000
#Effective redshift value from data 0.330035
#Effective redshift value from randoms 0.330056
#Size of the Box 2500.000000 Mpc/h
#Area of the survey used 5826.000000 deg^2
#Value of alpha: 0.050065
#Normalization using data file
#Normalization using density
#Normalization 4.344700
#Shot noise factor 1.000000
#Shot noise value 3658.415509
#Type of Computation: FFT
#Number of grid cells: 512
#Type of Mass Assigment: TSC
#Type of Yamamoto: GridCenter
#Number of Interlacing steps: 2
#Grid Correction: yes
#Value of Om=0.310000
#Quadrupole as L2
#Octopole as L3
#Hexadecapole as L2L2
#k-centerbin	 k-eff	 Monopole-Pshotnoise	 Dipole	 Quadrupole	 Octopole	 Hexadecapole	 number of modes	 Pshotnoise
0.005000 0.007385 42720.222465 -9767.275518 -37134.476076 -12676.948489 7195.297083 250 3658.415509
0.015000 0.016012 46493.440102 770.609382 13738.068461 1503.830448 9588.495773 1852 3658.415509
0.025000 0.025646 51118.523701 1458.331675 -1084.238968 627.090595 -8811.720758 5020 3658.415509
0.035000 0.035469 39457.275126 731.146137 -7621.464307 -3316.747965 -6523.228396 9756 3658.415509
0.045000 0.045368 30154.880112 922.188122 213.265517 1133.436880 309.481576 16108 3658.415509
0.055000 0.055314 26236.673246 406.105350 -2090.255661 -497.244992 1100.305925 24064 3658.415509
0.065000 0.065258 21855.627983 387.317066 -1684.508003 305.958722 -1452.424207 33396 3658.415509
0.075000 0.075209 18521.987734 464.684381 -1451.230592 -358.735620 -331.655947 44596 3658.415509
0.085000 0.085175 15503.366102 366.578737 85.391248 -208.918440 -936.595244 57124 3658.415509
0.095000 0.095157 13389.358331 235.860817 -505.883562 300.646851 -220.189154 71620 3658.415509
0.105000 0.105162 11343.273066 233.124785 -1267.523099 -154.078921 -564.408459 87552 3658.415509
0.115000 0.115148 10229.922039 78.235112 -542.749197 99.363792 965.937508 104524 3658.415509
0.125000 0.125146 9336.840541 145.109941 -819.477459 -71.161121 1031.047181 124228 3658.415509
0.135000 0.135146 8572.467468 164.682373 -688.122592 -168.845584 -504.883426 144204 3658.415509
0.145000 0.145132 7435.214596 136.168443 -526.104598 118.011808 7.346724 166492 3658.415509
0.155000 0.155114 6329.932632 117.588614 -483.212285 -28.897526 215.596986 189964 3658.415509
0.165000 0.165102 5809.201230 79.903822 -417.202032 27.600732 667.903799 215640 3658.415509
0.175000 0.175105 5218.165003 65.827838 -440.512598 -84.184300 190.630496 242836 3658.415509
0.185000 0.185097 4858.214753 70.595350 -469.001272 11.751120 -92.639222 270556 3658.415509
0.195000 0.195085 4544.210691 86.447319 -600.226568 -22.112776 -54.128380 301084 3658.415509
0.205000 0.205080 4087.357924 46.378382 -503.205413 28.212511 348.669715 332628 3658.415509
0.215000 0.215092 3701.233967 81.289772 -492.061849 -16.424617 456.117998 367216 3658.415509
0.225000 0.225099 3337.809646 62.052155 -594.334196 -18.431175 84.072492 400444 3658.415509
0.235000 0.235081 3071.915610 33.035540 -546.986584 -12.971559 45.329591 436500 3658.415509
0.245000 0.245077 2845.312669 43.866203 -743.132071 46.267719 193.268906 475900 3658.415509
0.255000 0.255082 2698.760214 48.639236 -751.901276 -86.739198 116.913325 514900 3658.415509
0.265000 0.265074 2456.090259 37.276761 -747.877971 62.409045 132.866775 555408 3658.415509
0.275000 0.275066 2281.400682 47.554175 -629.501914 -25.826065 136.485164 598684 3658.415509
0.285000 0.285066 2172.190567 30.802974 -838.514094 26.677863 285.876413 643228 3658.415509
0.295000 0.295058 2033.938969 36.432296 -839.292741 -17.429382 183.582903 688036 3658.415509
