#Data file /home/DATA/sbrieden/Patchy_dr12_mocks/postrecon/original/Patchy-Mocks-DR12CMASS-N-V6C-Portsmouth-mass_f0784b1850s10_0001.dat
#Random file /home/DATA/sbrieden/Patchy_dr12_mocks/postrecon/original/Patchy-Mocks-DR12CMASS-N-V6C-Portsmouth-mass_f0784b1850s10_0001.ran
#Number of data elements used: 589297
#Number of random elements used: 11762399
#Effective number of data elements weighted by wcol: 589297.000000
#Effective number of random elements weighted by wcol: 11762399.000000
#Effective number of data elements weighted by wcol*wsys: 589297.000000
#Effective number of random elements weighted by wcol*wsys: 11762399.000000
#Effective redshift value from data 0.597804
#Effective redshift value from randoms 0.597870
#Size of the Box 3700.000000 Mpc/h
#Area of the survey used 6851.000000 deg^2
#Value of alpha: 0.050166
#Normalization using data file
#Normalization using density
#Normalization 11.075279
#Shot noise factor 1.000000
#Shot noise value 4971.342206
#Type of Computation: FFT
#Number of grid cells: 512
#Type of Mass Assigment: TSC
#Type of Yamamoto: GridCenter
#Number of Interlacing steps: 2
#Grid Correction: yes
#Value of Om=0.310000
#Quadrupole as L2
#Octopole as L3
#Hexadecapole as L2L2
#k-centerbin	 k-eff	 Monopole-Pshotnoise	 Dipole	 Quadrupole	 Octopole	 Hexadecapole	 number of modes	 Pshotnoise
0.005000 0.007485 40840.514324 -2223.270690 -8869.363588 -4720.205111 -11225.003955 846 4971.342206
0.015000 0.016072 50314.907839 -234.004564 -12514.434568 -2712.809762 4730.828635 6012 4971.342206
0.025000 0.025646 44209.250300 749.415875 -1728.696835 232.483841 -4232.649945 16172 4971.342206
0.035000 0.035469 33413.228812 589.223387 -1990.505730 215.042047 146.345711 31764 4971.342206
0.045000 0.045378 27226.593924 398.241039 -2027.613228 -568.602200 3124.315287 52164 4971.342206
0.055000 0.055280 23901.593481 176.935889 1346.862695 241.296441 1100.327582 77396 4971.342206
0.065000 0.065232 20063.460781 247.295668 -1136.658686 198.681267 336.571313 108936 4971.342206
0.075000 0.075229 17661.914873 157.996387 -1810.131655 -54.164266 -358.230921 144980 4971.342206
0.085000 0.085193 14837.107797 226.627358 -1473.289221 34.361816 489.786755 184854 4971.342206
0.095000 0.095166 12398.983275 209.243145 -1410.452420 -171.856471 458.633592 232260 4971.342206
0.105000 0.105155 10343.821922 130.577986 -1541.644796 23.872424 201.766315 282884 4971.342206
0.115000 0.115131 9527.726642 72.205746 -1719.690365 -121.660498 -276.342383 339084 4971.342206
0.125000 0.125124 8776.211479 70.093585 -1083.985184 36.838716 419.940328 401864 4971.342206
0.135000 0.135125 8059.297841 95.692792 -1152.723443 -5.248000 546.456843 468084 4971.342206
0.145000 0.145120 7018.450675 107.113002 -838.208026 -4.418668 606.549772 539940 4971.342206
0.155000 0.155118 6200.587136 82.766546 -762.182100 -71.778045 307.465622 617324 4971.342206
0.165000 0.165105 5564.433721 69.873012 -719.016559 -27.704744 109.462888 697452 4971.342206
0.175000 0.175088 5113.606529 48.134220 -431.148912 39.667640 259.352406 785846 4971.342206
0.185000 0.185089 4747.910704 59.785738 -563.266720 -45.721171 -319.999061 879528 4971.342206
0.195000 0.195093 4416.168752 75.489716 -408.883421 -10.731289 -108.812281 976596 4971.342206
0.205000 0.205084 3994.034802 46.567822 -721.293126 32.865807 151.177407 1077212 4971.342206
0.215000 0.215076 3634.567330 60.147427 -703.197883 -2.468252 244.917669 1186908 4971.342206
0.225000 0.225076 3280.427809 54.619944 -524.616257 -45.274825 -34.466726 1299452 4971.342206
0.235000 0.235073 3006.663355 49.150998 -610.047820 35.193758 170.691013 1417356 4971.342206
0.245000 0.245067 2922.709281 37.780142 -789.328976 -2.023776 523.782310 1539600 4971.342206
0.255000 0.255064 2681.111520 53.032736 -586.515060 -24.450091 397.049311 1669820 4971.342206
0.265000 0.265061 2491.276607 47.382187 -643.107846 9.438740 103.298913 1801086 4971.342206
0.275000 0.275060 2309.213953 52.158288 -770.121417 -30.061833 191.583100 1942244 4971.342206
0.285000 0.285062 2147.327511 43.085121 -682.835018 12.927589 250.505204 2084796 4971.342206
0.295000 0.295057 2055.826738 46.012159 -781.468367 -22.589006 194.770335 2231868 4971.342206
