#Data file /home/DATA/sbrieden/Patchy_dr12_mocks/postrecon/original/Patchy-Mocks-DR12LOWZ-N-V5C-Portsmouth-mass_f0693b1850s10_0020.dat
#Random file /home/DATA/sbrieden/Patchy_dr12_mocks/postrecon/original/Patchy-Mocks-DR12LOWZ-N-V5C-Portsmouth-mass_f0693b1850s10_0020.ran
#Number of data elements used: 234914
#Number of random elements used: 4680413
#Effective number of data elements weighted by wcol: 234914.000000
#Effective number of random elements weighted by wcol: 4680413.000000
#Effective number of data elements weighted by wcol*wsys: 234914.000000
#Effective number of random elements weighted by wcol*wsys: 4680413.000000
#Effective redshift value from data 0.330477
#Effective redshift value from randoms 0.329864
#Size of the Box 2500.000000 Mpc/h
#Area of the survey used 5826.000000 deg^2
#Value of alpha: 0.050289
#Normalization using data file
#Normalization using density
#Normalization 4.358884
#Shot noise factor 1.000000
#Shot noise value 3668.160111
#Type of Computation: FFT
#Number of grid cells: 512
#Type of Mass Assigment: TSC
#Type of Yamamoto: GridCenter
#Number of Interlacing steps: 2
#Grid Correction: yes
#Value of Om=0.310000
#Quadrupole as L2
#Octopole as L3
#Hexadecapole as L2L2
#k-centerbin	 k-eff	 Monopole-Pshotnoise	 Dipole	 Quadrupole	 Octopole	 Hexadecapole	 number of modes	 Pshotnoise
0.005000 0.007385 24281.183190 -7926.093102 3976.949664 8002.448249 26435.104829 250 3668.160111
0.015000 0.016012 45197.376194 -876.467273 -5550.853586 -3907.988073 -20093.239925 1852 3668.160111
0.025000 0.025646 39552.653245 1118.891962 -5049.402190 -4216.186760 -15943.230274 5020 3668.160111
0.035000 0.035469 36766.385748 -92.015019 -8066.706334 1140.713311 -4422.985283 9756 3668.160111
0.045000 0.045368 29798.522520 638.786351 -5584.641264 -1277.306656 723.301395 16108 3668.160111
0.055000 0.055314 27047.053920 849.258244 -1702.892473 -565.253410 -2468.313414 24064 3668.160111
0.065000 0.065258 22200.696428 236.467591 -2552.237627 82.704710 832.063657 33396 3668.160111
0.075000 0.075209 19048.337619 370.708690 -283.157117 -230.599896 -451.530545 44596 3668.160111
0.085000 0.085175 16453.926898 363.495873 -2996.501846 -96.461090 -740.843416 57124 3668.160111
0.095000 0.095157 13642.429508 276.826799 -832.537776 83.601494 -305.175245 71620 3668.160111
0.105000 0.105162 11463.081097 246.392046 -506.981055 -78.423519 919.818546 87552 3668.160111
0.115000 0.115148 10447.670546 94.896768 -868.168870 -87.875858 -152.361581 104524 3668.160111
0.125000 0.125146 9565.701806 147.614073 -710.516486 -35.730911 293.765460 124228 3668.160111
0.135000 0.135146 8489.829287 186.819158 -294.740455 -83.219492 -51.795614 144204 3668.160111
0.145000 0.145132 7318.277375 95.156582 -499.106876 152.332680 -83.279063 166492 3668.160111
0.155000 0.155114 6629.162505 140.528577 -611.212987 -138.897953 -25.116002 189964 3668.160111
0.165000 0.165102 5731.495529 126.565484 -299.655157 -81.554017 211.702772 215640 3668.160111
0.175000 0.175105 5420.189454 8.088738 -317.566317 132.331719 -254.832547 242836 3668.160111
0.185000 0.185097 4933.724630 88.855474 -838.798518 -15.671353 255.327873 270556 3668.160111
0.195000 0.195085 4518.389806 70.972325 -630.541595 -54.144738 227.628226 301084 3668.160111
0.205000 0.205080 4164.779790 56.338738 -475.876888 -41.361896 -250.605038 332628 3668.160111
0.215000 0.215092 3768.206438 76.607247 -609.583199 35.353159 -59.123367 367216 3668.160111
0.225000 0.225099 3339.410865 75.784882 -622.354591 -20.065984 31.474967 400444 3668.160111
0.235000 0.235081 3086.567872 34.072750 -722.532311 13.155066 -30.443961 436500 3668.160111
0.245000 0.245077 2888.071566 60.758307 -715.421318 -26.760735 42.380393 475900 3668.160111
0.255000 0.255082 2663.745787 28.718438 -544.770452 -17.113344 50.207997 514900 3668.160111
0.265000 0.265074 2468.700193 46.400372 -685.164414 13.885029 36.841832 555408 3668.160111
0.275000 0.275066 2297.681363 38.172791 -710.067284 19.518400 192.477965 598684 3668.160111
0.285000 0.285066 2206.905800 22.580307 -826.689667 15.152932 305.044570 643228 3668.160111
0.295000 0.295058 2023.294272 65.966129 -834.241728 -34.246781 345.825827 688036 3668.160111
