#Data file /home/DATA/sbrieden/Patchy_dr12_mocks/postrecon/original/Patchy-Mocks-DR12CMASS-S-V6C-Portsmouth-mass_f0784b1850s10_0061.dat
#Random file /home/DATA/sbrieden/Patchy_dr12_mocks/postrecon/original/Patchy-Mocks-DR12CMASS-S-V6C-Portsmouth-mass_f0784b1850s10_0061.ran
#Number of data elements used: 215395
#Number of random elements used: 4281720
#Effective number of data elements weighted by wcol: 215395.000000
#Effective number of random elements weighted by wcol: 4281720.000000
#Effective number of data elements weighted by wcol*wsys: 215395.000000
#Effective number of random elements weighted by wcol*wsys: 4281720.000000
#Effective redshift value from data 0.597113
#Effective redshift value from randoms 0.596946
#Size of the Box 3700.000000 Mpc/h
#Area of the survey used 2525.000000 deg^2
#Value of alpha: 0.050352
#Normalization using data file
#Normalization using density
#Normalization 4.088104
#Shot noise factor 1.000000
#Shot noise value 4950.777747
#Type of Computation: FFT
#Number of grid cells: 512
#Type of Mass Assigment: TSC
#Type of Yamamoto: GridCenter
#Number of Interlacing steps: 2
#Grid Correction: yes
#Value of Om=0.310000
#Quadrupole as L2
#Octopole as L3
#Hexadecapole as L2L2
#k-centerbin	 k-eff	 Monopole-Pshotnoise	 Dipole	 Quadrupole	 Octopole	 Hexadecapole	 number of modes	 Pshotnoise
0.005000 0.007485 31209.767057 -2061.348208 -1857.561185 2048.369800 -780.381069 846 4950.777747
0.015000 0.016072 42256.715101 -1245.286720 -1754.035089 -274.803717 6365.619966 6012 4950.777747
0.025000 0.025646 43228.229648 1322.182532 -2807.504377 -944.898531 -8333.481028 16172 4950.777747
0.035000 0.035469 33503.429471 109.710645 -4699.900700 196.013071 2928.350888 31764 4950.777747
0.045000 0.045378 26805.079111 317.988893 -1058.194617 -148.540935 2442.921665 52164 4950.777747
0.055000 0.055280 24949.836939 18.989318 -1072.957370 -299.714553 -5663.913463 77396 4950.777747
0.065000 0.065232 20606.375662 600.453732 -512.921656 -182.927946 -2420.116095 108936 4950.777747
0.075000 0.075229 16616.784717 237.622946 240.773865 59.450069 732.752309 144980 4950.777747
0.085000 0.085193 13902.678434 182.827761 -1405.226488 45.660445 -163.341357 184854 4950.777747
0.095000 0.095166 11759.954370 112.096212 -986.794141 -33.132453 -528.772918 232260 4950.777747
0.105000 0.105155 10186.022401 165.038441 -583.573592 -41.148011 -75.669641 282884 4950.777747
0.115000 0.115131 9232.220841 37.755544 -1091.091911 86.706592 -477.511341 339084 4950.777747
0.125000 0.125124 8661.119737 79.165324 -1471.715538 -26.630775 344.609607 401864 4950.777747
0.135000 0.135125 7834.339099 85.478357 -1214.545718 -20.186713 502.196162 468084 4950.777747
0.145000 0.145120 6810.392369 116.201624 -814.386582 -82.532656 472.038712 539940 4950.777747
0.155000 0.155118 6095.654483 66.244202 -902.576714 -38.070254 -32.933962 617324 4950.777747
0.165000 0.165105 5357.540449 69.569600 -788.660577 4.646803 -198.719822 697452 4950.777747
0.175000 0.175088 4977.785994 57.066801 -843.476001 31.038196 6.160554 785846 4950.777747
0.185000 0.185089 4552.736633 63.867672 -804.490750 -71.435487 46.219797 879528 4950.777747
0.195000 0.195093 4180.288333 50.029875 -879.677662 51.142508 -97.579825 976596 4950.777747
0.205000 0.205084 3971.122067 37.668619 -1049.910346 -21.497747 197.708265 1077212 4950.777747
0.215000 0.215076 3597.307160 77.723260 -662.647404 -44.835322 -96.360454 1186908 4950.777747
0.225000 0.225076 3208.860940 44.836543 -532.748308 -17.850729 268.507457 1299452 4950.777747
0.235000 0.235073 3113.268320 47.098110 -527.882968 3.306864 194.333334 1417356 4950.777747
0.245000 0.245067 2944.244219 49.100493 -420.166463 -6.633769 27.409766 1539600 4950.777747
0.255000 0.255064 2671.600872 53.823186 -728.174733 -2.064439 16.630040 1669820 4950.777747
0.265000 0.265061 2329.236231 50.515731 -557.439654 9.364508 255.774822 1801086 4950.777747
0.275000 0.275060 2213.867466 50.616666 -613.478725 -29.792818 288.486828 1942244 4950.777747
0.285000 0.285062 2118.284584 36.230975 -821.980126 33.982515 255.872117 2084796 4950.777747
0.295000 0.295057 1960.653712 47.768814 -709.651005 -1.514813 460.394870 2231868 4950.777747
