#Data file /home/DATA/sbrieden/Patchy_dr12_mocks/postrecon/original/Patchy-Mocks-DR12LOWZ-S-V5C-Portsmouth-mass_f0693b1850s10_0024.dat
#Random file /home/DATA/sbrieden/Patchy_dr12_mocks/postrecon/original/Patchy-Mocks-DR12LOWZ-S-V5C-Portsmouth-mass_f0693b1850s10_0024.ran
#Number of data elements used: 100682
#Number of random elements used: 2007576
#Effective number of data elements weighted by wcol: 100682.000000
#Effective number of random elements weighted by wcol: 2007576.000000
#Effective number of data elements weighted by wcol*wsys: 100682.000000
#Effective number of random elements weighted by wcol*wsys: 2007576.000000
#Effective redshift value from data 0.329984
#Effective redshift value from randoms 0.330334
#Size of the Box 2500.000000 Mpc/h
#Area of the survey used 2501.000000 deg^2
#Value of alpha: 0.050093
#Normalization using data file
#Normalization using density
#Normalization 1.864954
#Shot noise factor 1.000000
#Shot noise value 3653.008547
#Type of Computation: FFT
#Number of grid cells: 512
#Type of Mass Assigment: TSC
#Type of Yamamoto: GridCenter
#Number of Interlacing steps: 2
#Grid Correction: yes
#Value of Om=0.310000
#Quadrupole as L2
#Octopole as L3
#Hexadecapole as L2L2
#k-centerbin	 k-eff	 Monopole-Pshotnoise	 Dipole	 Quadrupole	 Octopole	 Hexadecapole	 number of modes	 Pshotnoise
0.005000 0.007385 41782.037404 -2854.987175 1852.910338 -18219.081329 -38744.333495 250 3653.008547
0.015000 0.016012 53195.573802 -2584.140513 4327.975737 -6096.466583 -28090.777800 1852 3653.008547
0.025000 0.025646 59089.935418 473.913696 -10983.516141 343.149292 -28417.056949 5020 3653.008547
0.035000 0.035469 42951.694431 2573.612650 -8872.402234 -3032.091764 3564.478788 9756 3653.008547
0.045000 0.045368 32703.184313 959.908083 -4684.240492 1343.629199 -501.045514 16108 3653.008547
0.055000 0.055314 22703.058046 801.108047 303.198101 -1257.398627 7241.972426 24064 3653.008547
0.065000 0.065258 21486.429308 -14.203704 3121.898950 1245.513724 2808.975333 33396 3653.008547
0.075000 0.075209 19969.867134 320.102334 -1210.065083 -200.497681 385.720251 44596 3653.008547
0.085000 0.085175 16618.529843 451.876925 -554.849868 -29.654782 500.649410 57124 3653.008547
0.095000 0.095157 13195.369312 268.587045 -1480.900621 168.485115 -8.275446 71620 3653.008547
0.105000 0.105162 11335.243070 184.490871 -1508.627305 -12.203916 2308.975865 87552 3653.008547
0.115000 0.115148 10418.066028 137.967366 -763.825683 -144.419707 296.372703 104524 3653.008547
0.125000 0.125146 9430.237318 67.907297 -1504.690869 67.889338 42.472602 124228 3653.008547
0.135000 0.135146 8581.451197 203.669675 -1167.832588 -99.385429 82.728664 144204 3653.008547
0.145000 0.145132 7394.978077 146.244351 -292.844485 -94.489465 801.425650 166492 3653.008547
0.155000 0.155114 6475.018464 116.658930 -1166.250533 131.904203 836.077358 189964 3653.008547
0.165000 0.165102 5877.637812 36.135075 -1347.100161 14.472975 11.902493 215640 3653.008547
0.175000 0.175105 5429.988594 96.810785 -1317.466943 -120.486888 285.719352 242836 3653.008547
0.185000 0.185097 4997.698283 92.353568 -913.676301 -63.496362 -443.835040 270556 3653.008547
0.195000 0.195085 4358.434613 56.474524 -791.568875 41.670068 88.579477 301084 3653.008547
0.205000 0.205080 4070.611864 59.690235 -690.734170 -123.049704 -390.054841 332628 3653.008547
0.215000 0.215092 3749.808704 81.322209 -521.449039 19.242914 195.127319 367216 3653.008547
0.225000 0.225099 3434.629877 35.510392 -476.721051 -5.168655 -25.655840 400444 3653.008547
0.235000 0.235081 3216.983059 76.273971 -657.419001 4.383407 -9.576436 436500 3653.008547
0.245000 0.245077 2736.572330 35.028534 -554.206370 12.826804 77.475738 475900 3653.008547
0.255000 0.255082 2698.991443 50.340958 -756.975311 -9.635792 -63.442431 514900 3653.008547
0.265000 0.265074 2508.399276 26.991134 -860.596702 10.062083 87.314859 555408 3653.008547
0.275000 0.275066 2346.196388 45.096238 -925.855895 7.455065 282.953357 598684 3653.008547
0.285000 0.285066 2228.780290 38.159580 -819.517798 -16.360532 482.431600 643228 3653.008547
0.295000 0.295058 2006.610872 57.614493 -731.283293 -20.460355 391.675719 688036 3653.008547
