#Data file /home/DATA/sbrieden/Patchy_dr12_mocks/postrecon/original/Patchy-Mocks-DR12LOWZ-S-V5C-Portsmouth-mass_f0693b1850s10_0080.dat
#Random file /home/DATA/sbrieden/Patchy_dr12_mocks/postrecon/original/Patchy-Mocks-DR12LOWZ-S-V5C-Portsmouth-mass_f0693b1850s10_0080.ran
#Number of data elements used: 101398
#Number of random elements used: 2005210
#Effective number of data elements weighted by wcol: 101398.000000
#Effective number of random elements weighted by wcol: 2005210.000000
#Effective number of data elements weighted by wcol*wsys: 101398.000000
#Effective number of random elements weighted by wcol*wsys: 2005210.000000
#Effective redshift value from data 0.329681
#Effective redshift value from randoms 0.330446
#Size of the Box 2500.000000 Mpc/h
#Area of the survey used 2501.000000 deg^2
#Value of alpha: 0.050372
#Normalization using data file
#Normalization using density
#Normalization 1.875219
#Shot noise factor 1.000000
#Shot noise value 3636.288634
#Type of Computation: FFT
#Number of grid cells: 512
#Type of Mass Assigment: TSC
#Type of Yamamoto: GridCenter
#Number of Interlacing steps: 2
#Grid Correction: yes
#Value of Om=0.310000
#Quadrupole as L2
#Octopole as L3
#Hexadecapole as L2L2
#k-centerbin	 k-eff	 Monopole-Pshotnoise	 Dipole	 Quadrupole	 Octopole	 Hexadecapole	 number of modes	 Pshotnoise
0.005000 0.007385 50819.499199 -7613.424985 8702.506116 -25216.732780 -64894.970407 250 3636.288634
0.015000 0.016012 57100.902422 -801.913854 6351.623508 2965.866620 -17418.015737 1852 3636.288634
0.025000 0.025646 50384.446562 3536.335449 -848.574235 -3131.385029 -24618.458342 5020 3636.288634
0.035000 0.035469 30379.561275 508.776117 888.972924 46.708244 5506.846566 9756 3636.288634
0.045000 0.045368 28187.657809 443.584951 2595.867173 863.158776 -3648.583156 16108 3636.288634
0.055000 0.055314 26019.708434 562.224304 1162.105454 554.624556 2264.367797 24064 3636.288634
0.065000 0.065258 22173.248048 203.569385 -3119.318232 782.185371 5811.150623 33396 3636.288634
0.075000 0.075209 19708.434580 379.200932 -1957.236087 -948.747556 1743.023563 44596 3636.288634
0.085000 0.085175 15570.529921 496.873910 -1397.897686 -143.117810 -1401.492685 57124 3636.288634
0.095000 0.095157 13209.030193 120.631094 -1667.678193 353.434346 -751.512988 71620 3636.288634
0.105000 0.105162 12128.255308 212.551810 -1573.746783 -320.119488 -1415.587388 87552 3636.288634
0.115000 0.115148 10137.794309 271.264074 -634.420366 -96.969475 471.780622 104524 3636.288634
0.125000 0.125146 9170.456020 109.379502 -456.971851 380.081636 1851.518796 124228 3636.288634
0.135000 0.135146 8319.572797 182.406600 -725.511212 -447.598278 284.271368 144204 3636.288634
0.145000 0.145132 7179.036460 55.070434 -559.314630 -0.288659 -281.936534 166492 3636.288634
0.155000 0.155114 6656.279431 128.244830 -409.834713 124.482146 751.322217 189964 3636.288634
0.165000 0.165102 5760.903154 112.499395 -588.678311 -32.591961 10.681031 215640 3636.288634
0.175000 0.175105 5367.086892 30.830190 -1077.301371 74.007826 -248.081299 242836 3636.288634
0.185000 0.185097 4756.720134 116.298828 -648.682528 -60.864683 311.306867 270556 3636.288634
0.195000 0.195085 4344.584602 58.046179 -480.743776 57.515064 601.705678 301084 3636.288634
0.205000 0.205080 3878.747604 67.003112 -966.213862 -42.639592 416.420588 332628 3636.288634
0.215000 0.215092 3763.222991 50.388614 -793.300072 -40.136538 84.012772 367216 3636.288634
0.225000 0.225099 3336.513424 56.722419 -632.601827 9.723963 -84.466504 400444 3636.288634
0.235000 0.235081 3029.344677 47.510263 -825.742380 18.011983 281.802386 436500 3636.288634
0.245000 0.245077 2907.468632 43.932240 -833.576795 -62.616722 222.121543 475900 3636.288634
0.255000 0.255082 2690.512864 50.304548 -584.509876 -34.803514 1.404291 514900 3636.288634
0.265000 0.265074 2467.954086 29.928210 -650.893581 22.682481 139.115312 555408 3636.288634
0.275000 0.275066 2303.718586 44.483981 -837.978232 38.962054 28.476863 598684 3636.288634
0.285000 0.285066 2074.684181 54.438591 -764.178175 -48.456249 359.102903 643228 3636.288634
0.295000 0.295058 1903.578517 39.466380 -618.782591 -8.875641 417.250127 688036 3636.288634
