#Data file /home/DATA/sbrieden/Patchy_dr12_mocks/postrecon/original/Patchy-Mocks-DR12CMASS-N-V6C-Portsmouth-mass_f0784b1850s10_0078.dat
#Random file /home/DATA/sbrieden/Patchy_dr12_mocks/postrecon/original/Patchy-Mocks-DR12CMASS-N-V6C-Portsmouth-mass_f0784b1850s10_0078.ran
#Number of data elements used: 586921
#Number of random elements used: 11761911
#Effective number of data elements weighted by wcol: 586921.000000
#Effective number of random elements weighted by wcol: 11761911.000000
#Effective number of data elements weighted by wcol*wsys: 586921.000000
#Effective number of random elements weighted by wcol*wsys: 11761911.000000
#Effective redshift value from data 0.597823
#Effective redshift value from randoms 0.597914
#Size of the Box 3700.000000 Mpc/h
#Area of the survey used 6851.000000 deg^2
#Value of alpha: 0.049966
#Normalization using data file
#Normalization using density
#Normalization 11.031082
#Shot noise factor 1.000000
#Shot noise value 4970.192643
#Type of Computation: FFT
#Number of grid cells: 512
#Type of Mass Assigment: TSC
#Type of Yamamoto: GridCenter
#Number of Interlacing steps: 2
#Grid Correction: yes
#Value of Om=0.310000
#Quadrupole as L2
#Octopole as L3
#Hexadecapole as L2L2
#k-centerbin	 k-eff	 Monopole-Pshotnoise	 Dipole	 Quadrupole	 Octopole	 Hexadecapole	 number of modes	 Pshotnoise
0.005000 0.007485 53134.469076 -1054.587336 -16536.946716 -9158.091330 -11307.709717 846 4970.192643
0.015000 0.016072 52400.741922 270.524629 -7342.327135 -2016.723756 -68.233990 6012 4970.192643
0.025000 0.025646 44806.859036 356.997396 -3258.097617 1837.848241 17771.275370 16172 4970.192643
0.035000 0.035469 35721.272155 161.334910 -5276.512467 538.369221 -537.931912 31764 4970.192643
0.045000 0.045378 28523.954996 978.364166 -4972.527431 -1213.482506 2395.266493 52164 4970.192643
0.055000 0.055280 23625.781796 247.345270 -1359.892258 -180.703234 2629.866488 77396 4970.192643
0.065000 0.065232 19801.161326 213.308810 -1318.855182 -116.039649 -67.700786 108936 4970.192643
0.075000 0.075229 18120.706677 81.095659 -1047.445560 374.818163 335.179403 144980 4970.192643
0.085000 0.085193 14958.645384 317.011916 -1342.494855 -218.233795 -66.771878 184854 4970.192643
0.095000 0.095166 11766.892270 193.826052 -1307.590319 -150.266079 -1087.822151 232260 4970.192643
0.105000 0.105155 10552.790193 49.384050 -1311.030770 140.012512 -1288.774276 282884 4970.192643
0.115000 0.115131 9568.154819 93.188516 -796.335086 -63.088287 -530.642145 339084 4970.192643
0.125000 0.125124 9005.982128 95.963250 -859.210166 -45.731595 -336.377394 401864 4970.192643
0.135000 0.135125 7943.988689 88.831421 -583.259049 -13.848890 52.116686 468084 4970.192643
0.145000 0.145120 7066.355120 106.061381 -486.335080 -18.253016 -143.718856 539940 4970.192643
0.155000 0.155118 6308.596956 78.821175 -700.249209 10.202365 158.129122 617324 4970.192643
0.165000 0.165105 5572.462419 60.068613 -716.501174 27.583360 64.270072 697452 4970.192643
0.175000 0.175088 5052.359714 77.020290 -753.701002 -72.834983 102.979146 785846 4970.192643
0.185000 0.185089 4766.859174 56.781304 -677.311461 -8.539801 135.193636 879528 4970.192643
0.195000 0.195093 4273.495926 51.278644 -545.477352 20.574996 30.320089 976596 4970.192643
0.205000 0.205084 3976.074604 62.994055 -697.100338 -11.443737 264.185758 1077212 4970.192643
0.215000 0.215076 3590.112822 59.420794 -720.006998 -5.409418 -15.060886 1186908 4970.192643
0.225000 0.225076 3226.426819 46.153780 -731.745744 -7.711784 146.976453 1299452 4970.192643
0.235000 0.235073 3012.968324 43.653162 -615.147648 22.622593 206.507291 1417356 4970.192643
0.245000 0.245067 2870.959465 45.205402 -773.803186 -25.474058 200.113009 1539600 4970.192643
0.255000 0.255064 2664.364056 57.796592 -666.006659 -20.751691 165.128308 1669820 4970.192643
0.265000 0.265061 2466.208011 39.423592 -653.414983 17.700277 185.254774 1801086 4970.192643
0.275000 0.275060 2301.873561 55.426419 -709.317233 -18.494265 243.372210 1942244 4970.192643
0.285000 0.285062 2169.973662 36.140282 -720.923736 -3.047973 159.635390 2084796 4970.192643
0.295000 0.295057 2004.691802 56.804076 -675.019678 -5.335233 211.388477 2231868 4970.192643
