#Data file /home/DATA/sbrieden/Patchy_dr12_mocks/postrecon/original/Patchy-Mocks-DR12LOWZ-S-V5C-Portsmouth-mass_f0693b1850s10_0027.dat
#Random file /home/DATA/sbrieden/Patchy_dr12_mocks/postrecon/original/Patchy-Mocks-DR12LOWZ-S-V5C-Portsmouth-mass_f0693b1850s10_0027.ran
#Number of data elements used: 98461
#Number of random elements used: 2008173
#Effective number of data elements weighted by wcol: 98461.000000
#Effective number of random elements weighted by wcol: 2008173.000000
#Effective number of data elements weighted by wcol*wsys: 98461.000000
#Effective number of random elements weighted by wcol*wsys: 2008173.000000
#Effective redshift value from data 0.330536
#Effective redshift value from randoms 0.329853
#Size of the Box 2500.000000 Mpc/h
#Area of the survey used 2501.000000 deg^2
#Value of alpha: 0.049187
#Normalization using data file
#Normalization using density
#Normalization 1.828382
#Shot noise factor 1.000000
#Shot noise value 3668.256407
#Type of Computation: FFT
#Number of grid cells: 512
#Type of Mass Assigment: TSC
#Type of Yamamoto: GridCenter
#Number of Interlacing steps: 2
#Grid Correction: yes
#Value of Om=0.310000
#Quadrupole as L2
#Octopole as L3
#Hexadecapole as L2L2
#k-centerbin	 k-eff	 Monopole-Pshotnoise	 Dipole	 Quadrupole	 Octopole	 Hexadecapole	 number of modes	 Pshotnoise
0.005000 0.007385 47699.434492 -2421.087679 29460.077404 -6982.455045 -39009.546500 250 3668.256407
0.015000 0.016012 64342.537321 1024.990973 -19085.882496 7197.273124 13463.025490 1852 3668.256407
0.025000 0.025646 36731.370734 1722.734731 8717.309190 4571.792028 36993.166119 5020 3668.256407
0.035000 0.035469 36135.066760 469.221465 471.675358 347.087226 8965.635941 9756 3668.256407
0.045000 0.045368 30171.615649 1117.083628 2729.881299 1237.034823 4452.913001 16108 3668.256407
0.055000 0.055314 26347.267751 -138.592505 -890.467764 424.571254 3541.564600 24064 3668.256407
0.065000 0.065258 23043.972720 258.055829 -5491.140134 -512.979311 5584.301209 33396 3668.256407
0.075000 0.075209 19117.982850 586.548217 579.698921 -33.988252 2506.065156 44596 3668.256407
0.085000 0.085175 16060.707108 473.022815 -1627.690218 34.095975 952.487791 57124 3668.256407
0.095000 0.095157 13141.055087 323.455260 -1477.857041 -510.982208 -951.011520 71620 3668.256407
0.105000 0.105162 10591.418543 153.489627 -963.587964 414.254814 -1318.162096 87552 3668.256407
0.115000 0.115148 9330.445024 255.733756 -1191.053568 -257.427207 82.319819 104524 3668.256407
0.125000 0.125146 9017.463744 -12.142650 -353.080357 221.600554 1199.298874 124228 3668.256407
0.135000 0.135146 8353.431121 216.384246 -1258.691282 -383.422315 578.619690 144204 3668.256407
0.145000 0.145132 7230.206731 75.585850 -443.934857 147.318275 200.655211 166492 3668.256407
0.155000 0.155114 6430.245263 141.351021 -628.058306 -97.538612 551.970202 189964 3668.256407
0.165000 0.165102 5719.273030 49.618133 -735.311429 34.547957 -140.957582 215640 3668.256407
0.175000 0.175105 5264.344297 62.033036 -995.959215 -2.080514 165.177949 242836 3668.256407
0.185000 0.185097 4833.642516 85.296870 -1097.559466 -17.872385 -154.958340 270556 3668.256407
0.195000 0.195085 4470.517687 52.973408 -992.440808 -22.345616 -205.011514 301084 3668.256407
0.205000 0.205080 4028.440667 90.109585 -979.397084 -13.265897 143.766418 332628 3668.256407
0.215000 0.215092 3573.206196 60.983105 -866.912049 -27.662306 352.883724 367216 3668.256407
0.225000 0.225099 3208.491917 33.249309 -932.293787 -17.982149 -94.382990 400444 3668.256407
0.235000 0.235081 3008.539140 61.625689 -795.864715 17.223211 0.146174 436500 3668.256407
0.245000 0.245077 2674.962632 49.318854 -812.380050 -21.479934 237.775755 475900 3668.256407
0.255000 0.255082 2605.583434 27.792922 -916.421996 -2.125396 76.031550 514900 3668.256407
0.265000 0.265074 2399.781303 56.801404 -993.516245 -9.209156 40.151146 555408 3668.256407
0.275000 0.275066 2185.662752 31.257502 -850.503058 -9.242757 244.161570 598684 3668.256407
0.285000 0.285066 2201.488268 24.345275 -866.941000 -51.223384 450.203970 643228 3668.256407
0.295000 0.295058 1941.501287 65.030920 -595.462529 -13.555967 49.521085 688036 3668.256407
