#Data file /home/DATA/sbrieden/Patchy_dr12_mocks/postrecon/original/Patchy-Mocks-DR12LOWZ-S-V5C-Portsmouth-mass_f0693b1850s10_0009.dat
#Random file /home/DATA/sbrieden/Patchy_dr12_mocks/postrecon/original/Patchy-Mocks-DR12LOWZ-S-V5C-Portsmouth-mass_f0693b1850s10_0009.ran
#Number of data elements used: 99273
#Number of random elements used: 2007929
#Effective number of data elements weighted by wcol: 99273.000000
#Effective number of random elements weighted by wcol: 2007929.000000
#Effective number of data elements weighted by wcol*wsys: 99273.000000
#Effective number of random elements weighted by wcol*wsys: 2007929.000000
#Effective redshift value from data 0.330452
#Effective redshift value from randoms 0.329926
#Size of the Box 2500.000000 Mpc/h
#Area of the survey used 2501.000000 deg^2
#Value of alpha: 0.049501
#Normalization using data file
#Normalization using density
#Normalization 1.841530
#Shot noise factor 1.000000
#Shot noise value 3661.965754
#Type of Computation: FFT
#Number of grid cells: 512
#Type of Mass Assigment: TSC
#Type of Yamamoto: GridCenter
#Number of Interlacing steps: 2
#Grid Correction: yes
#Value of Om=0.310000
#Quadrupole as L2
#Octopole as L3
#Hexadecapole as L2L2
#k-centerbin	 k-eff	 Monopole-Pshotnoise	 Dipole	 Quadrupole	 Octopole	 Hexadecapole	 number of modes	 Pshotnoise
0.005000 0.007385 33881.430168 -4149.443674 -11619.072107 -14703.151564 -26491.021033 250 3661.965754
0.015000 0.016012 44216.963188 1696.024427 -4894.908708 -13581.380889 -27484.628778 1852 3661.965754
0.025000 0.025646 41439.274796 377.047770 9929.163871 3117.305330 -21614.806507 5020 3661.965754
0.035000 0.035469 31675.577831 109.193130 7114.612605 -1237.046670 144.231259 9756 3661.965754
0.045000 0.045368 31412.476223 404.825866 281.643287 2867.190332 -8591.021680 16108 3661.965754
0.055000 0.055314 24046.549391 702.715491 -4482.466409 -974.699160 3138.204466 24064 3661.965754
0.065000 0.065258 21145.451627 582.332398 -2605.501795 -631.400061 -2484.785327 33396 3661.965754
0.075000 0.075209 18532.407712 91.055149 -1474.261690 -459.099048 -3948.235226 44596 3661.965754
0.085000 0.085175 15366.188175 411.087497 -2422.354592 199.858583 -1682.266976 57124 3661.965754
0.095000 0.095157 13279.692848 238.669759 -1509.251943 -103.242166 -402.886201 71620 3661.965754
0.105000 0.105162 11985.046876 97.631719 -479.554716 153.087510 500.228217 87552 3661.965754
0.115000 0.115148 10647.780364 211.305010 -772.336506 -239.360177 88.970023 104524 3661.965754
0.125000 0.125146 9202.413268 185.107874 -953.822111 -1.448934 -589.738761 124228 3661.965754
0.135000 0.135146 8537.095581 131.055794 -1185.149859 34.825807 613.841987 144204 3661.965754
0.145000 0.145132 7371.149296 58.932411 -694.602533 64.336951 292.743980 166492 3661.965754
0.155000 0.155114 6813.618295 177.626004 -898.527151 -49.513650 171.611344 189964 3661.965754
0.165000 0.165102 5712.517373 70.810800 -1263.717380 27.748162 386.995081 215640 3661.965754
0.175000 0.175105 5406.424539 85.590997 -1126.763736 -136.516580 -24.332489 242836 3661.965754
0.185000 0.185097 5061.488180 54.073709 -764.500466 50.260063 492.951973 270556 3661.965754
0.195000 0.195085 4548.901291 83.650149 -1020.963788 -27.722946 193.835375 301084 3661.965754
0.205000 0.205080 4098.748459 44.587348 -819.314810 19.496844 303.149914 332628 3661.965754
0.215000 0.215092 3798.843443 81.086687 -947.874865 -81.423031 15.193787 367216 3661.965754
0.225000 0.225099 3391.084856 55.992838 -993.890002 54.481486 186.595163 400444 3661.965754
0.235000 0.235081 3088.693993 37.858112 -1029.365398 -25.012094 496.244723 436500 3661.965754
0.245000 0.245077 2987.096808 52.092791 -991.425001 -25.800469 259.001825 475900 3661.965754
0.255000 0.255082 2721.888970 52.668768 -949.527975 -5.413634 404.258494 514900 3661.965754
0.265000 0.265074 2454.080441 37.427736 -917.836701 -43.663283 14.852605 555408 3661.965754
0.275000 0.275066 2338.098761 36.860933 -971.016204 5.488703 38.356756 598684 3661.965754
0.285000 0.285066 2177.954948 55.542843 -907.500604 -44.995661 188.970056 643228 3661.965754
0.295000 0.295058 1982.151607 36.641171 -660.144397 4.168977 399.076900 688036 3661.965754
