#Data file /home/DATA/sbrieden/Patchy_dr12_mocks/postrecon/original/Patchy-Mocks-DR12CMASS-S-V6C-Portsmouth-mass_f0784b1850s10_0076.dat
#Random file /home/DATA/sbrieden/Patchy_dr12_mocks/postrecon/original/Patchy-Mocks-DR12CMASS-S-V6C-Portsmouth-mass_f0784b1850s10_0076.ran
#Number of data elements used: 216153
#Number of random elements used: 4277455
#Effective number of data elements weighted by wcol: 216153.000000
#Effective number of random elements weighted by wcol: 4277455.000000
#Effective number of data elements weighted by wcol*wsys: 216153.000000
#Effective number of random elements weighted by wcol*wsys: 4277455.000000
#Effective redshift value from data 0.596822
#Effective redshift value from randoms 0.597118
#Size of the Box 3700.000000 Mpc/h
#Area of the survey used 2525.000000 deg^2
#Value of alpha: 0.050537
#Normalization using data file
#Normalization using density
#Normalization 4.102117
#Shot noise factor 1.000000
#Shot noise value 4947.850688
#Type of Computation: FFT
#Number of grid cells: 512
#Type of Mass Assigment: TSC
#Type of Yamamoto: GridCenter
#Number of Interlacing steps: 2
#Grid Correction: yes
#Value of Om=0.310000
#Quadrupole as L2
#Octopole as L3
#Hexadecapole as L2L2
#k-centerbin	 k-eff	 Monopole-Pshotnoise	 Dipole	 Quadrupole	 Octopole	 Hexadecapole	 number of modes	 Pshotnoise
0.005000 0.007485 71614.973341 -3450.236163 -41021.075113 -21923.072218 -25886.287519 846 4947.850688
0.015000 0.016072 55810.678874 2332.054760 4232.434201 -3719.883818 -21224.100590 6012 4947.850688
0.025000 0.025646 41777.644521 466.885486 3070.664461 1249.788144 3396.234117 16172 4947.850688
0.035000 0.035469 34138.501048 333.098292 -3304.512777 928.850804 8979.724463 31764 4947.850688
0.045000 0.045378 26507.813336 613.697871 -2720.601149 -365.716776 -637.674153 52164 4947.850688
0.055000 0.055280 22805.674294 249.079210 -3950.710431 -633.002832 -1612.322966 77396 4947.850688
0.065000 0.065232 20038.045637 49.265235 1140.931513 319.597661 90.534647 108936 4947.850688
0.075000 0.075229 17616.246708 312.103032 -1396.357937 2.497616 2566.331370 144980 4947.850688
0.085000 0.085193 14648.627472 144.008810 -1824.851479 -7.187025 -622.504709 184854 4947.850688
0.095000 0.095166 12217.052488 203.208294 -1463.796492 18.499634 425.097966 232260 4947.850688
0.105000 0.105155 10380.232979 115.351018 -1317.482506 107.098291 1859.677816 282884 4947.850688
0.115000 0.115131 9533.893389 50.984461 -1650.709293 -190.521084 731.763333 339084 4947.850688
0.125000 0.125124 8729.085111 128.305370 -1152.051328 -42.773915 -932.314789 401864 4947.850688
0.135000 0.135125 7750.591087 113.709062 -846.521228 -32.913996 90.913349 468084 4947.850688
0.145000 0.145120 6707.094513 87.674976 -1118.128153 -8.677097 -14.228939 539940 4947.850688
0.155000 0.155118 5964.988891 65.580596 -1068.783947 61.879185 398.679187 617324 4947.850688
0.165000 0.165105 5372.084939 73.319680 -629.126154 -97.692692 447.099345 697452 4947.850688
0.175000 0.175088 5102.988660 52.177104 -923.800792 -23.550829 -115.327874 785846 4947.850688
0.185000 0.185089 4671.303653 54.081612 -909.751682 15.781736 -99.423034 879528 4947.850688
0.195000 0.195093 4230.968527 50.706637 -812.502631 24.318598 407.210372 976596 4947.850688
0.205000 0.205084 3914.587451 60.577174 -626.036759 -31.838440 295.863762 1077212 4947.850688
0.215000 0.215076 3652.315569 53.556970 -954.166921 -7.782779 129.607445 1186908 4947.850688
0.225000 0.225076 3276.740645 66.928883 -686.346546 -37.068175 -56.256020 1299452 4947.850688
0.235000 0.235073 2928.848613 40.273370 -616.600766 2.961808 -155.842808 1417356 4947.850688
0.245000 0.245067 2742.588086 48.014951 -627.907196 -3.917390 216.121277 1539600 4947.850688
0.255000 0.255064 2575.897484 46.051514 -625.264653 -5.071939 181.273842 1669820 4947.850688
0.265000 0.265061 2445.936698 52.198146 -698.031256 -3.257240 44.366360 1801086 4947.850688
0.275000 0.275060 2221.736248 49.392285 -854.344955 0.440350 141.270234 1942244 4947.850688
0.285000 0.285062 2093.731429 39.201005 -761.961439 -17.452705 300.416321 2084796 4947.850688
0.295000 0.295057 1995.033329 42.368825 -903.261814 8.083572 201.851006 2231868 4947.850688
