#Data file /home/DATA/sbrieden/Patchy_dr12_mocks/postrecon/original/Patchy-Mocks-DR12CMASS-S-V6C-Portsmouth-mass_f0784b1850s10_0093.dat
#Random file /home/DATA/sbrieden/Patchy_dr12_mocks/postrecon/original/Patchy-Mocks-DR12CMASS-S-V6C-Portsmouth-mass_f0784b1850s10_0093.ran
#Number of data elements used: 215103
#Number of random elements used: 4286410
#Effective number of data elements weighted by wcol: 215103.000000
#Effective number of random elements weighted by wcol: 4286410.000000
#Effective number of data elements weighted by wcol*wsys: 215103.000000
#Effective number of random elements weighted by wcol*wsys: 4286410.000000
#Effective redshift value from data 0.596807
#Effective redshift value from randoms 0.597064
#Size of the Box 3700.000000 Mpc/h
#Area of the survey used 2525.000000 deg^2
#Value of alpha: 0.050227
#Normalization using data file
#Normalization using density
#Normalization 4.084134
#Shot noise factor 1.000000
#Shot noise value 4945.929273
#Type of Computation: FFT
#Number of grid cells: 512
#Type of Mass Assigment: TSC
#Type of Yamamoto: GridCenter
#Number of Interlacing steps: 2
#Grid Correction: yes
#Value of Om=0.310000
#Quadrupole as L2
#Octopole as L3
#Hexadecapole as L2L2
#k-centerbin	 k-eff	 Monopole-Pshotnoise	 Dipole	 Quadrupole	 Octopole	 Hexadecapole	 number of modes	 Pshotnoise
0.005000 0.007485 25703.533685 781.420985 1721.131920 -6713.907194 -14357.341966 846 4945.929273
0.015000 0.016072 39765.399940 -2116.509700 -9875.224942 -153.450675 -173.042768 6012 4945.929273
0.025000 0.025646 40449.265186 238.127933 -5723.587615 813.516001 -2581.634923 16172 4945.929273
0.035000 0.035469 34948.760431 707.668941 -5400.538868 -1368.101661 -1270.967241 31764 4945.929273
0.045000 0.045378 30162.090057 322.550017 -4554.329874 -768.110481 2788.993520 52164 4945.929273
0.055000 0.055280 24451.800377 273.459906 -2092.255667 361.166526 -991.448423 77396 4945.929273
0.065000 0.065232 19122.100445 377.667614 -1408.991957 -302.083042 2211.121884 108936 4945.929273
0.075000 0.075229 17015.352202 202.308335 -321.451345 -50.560964 -835.705673 144980 4945.929273
0.085000 0.085193 15013.944650 133.642365 -720.402647 248.495046 -2004.587230 184854 4945.929273
0.095000 0.095166 12095.330972 247.111959 -1563.318813 -110.665153 1744.425379 232260 4945.929273
0.105000 0.105155 10078.146400 84.805151 -2070.663252 -8.802291 -275.734678 282884 4945.929273
0.115000 0.115131 9420.447730 84.835070 -1970.798102 31.180589 1039.354942 339084 4945.929273
0.125000 0.125124 8303.624770 120.345446 -1062.005298 -189.372823 617.108849 401864 4945.929273
0.135000 0.135125 7590.472954 80.797434 -255.054376 -50.529742 -6.808616 468084 4945.929273
0.145000 0.145120 6924.021758 86.717799 -912.074939 27.385071 -619.190340 539940 4945.929273
0.155000 0.155118 5955.669845 68.659641 -670.583830 22.958021 -27.510366 617324 4945.929273
0.165000 0.165105 5438.105691 58.582008 -683.876121 -4.084757 163.648661 697452 4945.929273
0.175000 0.175088 4939.521856 75.073051 -400.368340 17.539862 358.630047 785846 4945.929273
0.185000 0.185089 4552.820895 41.482525 -822.118890 6.944265 317.599723 879528 4945.929273
0.195000 0.195093 4173.413193 54.043291 -981.330529 4.051902 317.424445 976596 4945.929273
0.205000 0.205084 3793.803602 72.089193 -956.549177 -63.893298 347.747948 1077212 4945.929273
0.215000 0.215076 3518.377923 43.751552 -961.529563 34.529371 -216.148058 1186908 4945.929273
0.225000 0.225076 3210.634796 43.744820 -913.410462 -3.059209 186.777760 1299452 4945.929273
0.235000 0.235073 2981.743318 54.120012 -608.847298 -45.352629 299.203985 1417356 4945.929273
0.245000 0.245067 2849.454522 46.542262 -675.007343 11.979659 209.894404 1539600 4945.929273
0.255000 0.255064 2511.215659 57.626686 -842.387017 -0.933833 321.747729 1669820 4945.929273
0.265000 0.265061 2295.964677 40.230954 -770.257016 -32.441732 221.837330 1801086 4945.929273
0.275000 0.275060 2231.163702 52.419794 -638.882069 -5.060589 280.559584 1942244 4945.929273
0.285000 0.285062 2088.315406 38.830665 -810.284344 8.678790 351.789385 2084796 4945.929273
0.295000 0.295057 1915.393432 51.078011 -666.946569 -15.888981 482.242644 2231868 4945.929273
