#Data file /home/DATA/sbrieden/Patchy_dr12_mocks/postrecon/original/Patchy-Mocks-DR12CMASS-S-V6C-Portsmouth-mass_f0784b1850s10_0025.dat
#Random file /home/DATA/sbrieden/Patchy_dr12_mocks/postrecon/original/Patchy-Mocks-DR12CMASS-S-V6C-Portsmouth-mass_f0784b1850s10_0025.ran
#Number of data elements used: 215757
#Number of random elements used: 4275574
#Effective number of data elements weighted by wcol: 215757.000000
#Effective number of random elements weighted by wcol: 4275574.000000
#Effective number of data elements weighted by wcol*wsys: 215757.000000
#Effective number of random elements weighted by wcol*wsys: 4275574.000000
#Effective redshift value from data 0.597032
#Effective redshift value from randoms 0.597136
#Size of the Box 3700.000000 Mpc/h
#Area of the survey used 2525.000000 deg^2
#Value of alpha: 0.050548
#Normalization using data file
#Normalization using density
#Normalization 4.098279
#Shot noise factor 1.000000
#Shot noise value 4947.597832
#Type of Computation: FFT
#Number of grid cells: 512
#Type of Mass Assigment: TSC
#Type of Yamamoto: GridCenter
#Number of Interlacing steps: 2
#Grid Correction: yes
#Value of Om=0.310000
#Quadrupole as L2
#Octopole as L3
#Hexadecapole as L2L2
#k-centerbin	 k-eff	 Monopole-Pshotnoise	 Dipole	 Quadrupole	 Octopole	 Hexadecapole	 number of modes	 Pshotnoise
0.005000 0.007485 54844.377430 -3187.625384 -30539.674153 -6075.751135 -8007.755251 846 4947.597832
0.015000 0.016072 43654.114269 561.216176 -14405.483111 -1977.960301 386.835399 6012 4947.597832
0.025000 0.025646 39410.300824 -126.583148 -7354.016728 1066.281379 22668.336794 16172 4947.597832
0.035000 0.035469 32968.611840 1129.534989 2305.100225 -1202.307225 4026.900759 31764 4947.597832
0.045000 0.045378 25176.142644 -53.817548 -1278.004299 771.826759 -2074.275437 52164 4947.597832
0.055000 0.055280 23277.960014 253.544459 -4949.355603 -2.713539 3212.098836 77396 4947.597832
0.065000 0.065232 19355.440648 308.496905 56.878283 -494.231836 -659.499268 108936 4947.597832
0.075000 0.075229 17362.927430 122.439300 -3603.796308 145.652002 -1474.782058 144980 4947.597832
0.085000 0.085193 14177.602819 258.890699 -2254.915012 -110.836182 -634.238374 184854 4947.597832
0.095000 0.095166 12314.558423 73.512230 -1486.874574 68.003274 -5.756731 232260 4947.597832
0.105000 0.105155 10454.736209 219.726410 -1930.091189 -57.610787 1227.674514 282884 4947.597832
0.115000 0.115131 9305.865426 102.615860 -2159.277965 -140.130272 436.095059 339084 4947.597832
0.125000 0.125124 8249.620141 49.359097 -760.391690 -29.944043 283.793813 401864 4947.597832
0.135000 0.135125 7815.718508 90.870736 -886.538103 -1.417584 -430.365950 468084 4947.597832
0.145000 0.145120 6973.030890 86.002611 -814.254835 -73.534388 -72.428368 539940 4947.597832
0.155000 0.155118 6200.414974 119.016326 -189.292412 -68.209179 -374.221588 617324 4947.597832
0.165000 0.165105 5460.215088 44.771871 -655.929048 86.842989 -174.801959 697452 4947.597832
0.175000 0.175088 4898.575804 39.003423 -765.237650 -11.871351 -136.310921 785846 4947.597832
0.185000 0.185089 4654.091565 78.755471 -958.106451 15.736334 207.064648 879528 4947.597832
0.195000 0.195093 4144.143136 50.231513 -563.644437 -55.028267 324.823346 976596 4947.597832
0.205000 0.205084 3936.930770 46.912324 -657.438915 5.021060 -287.250008 1077212 4947.597832
0.215000 0.215076 3622.813462 72.119371 -674.039347 -3.604917 175.795980 1186908 4947.597832
0.225000 0.225076 3243.918923 41.250436 -586.501495 -5.350162 187.969907 1299452 4947.597832
0.235000 0.235073 3005.026706 52.717103 -627.547248 -5.295642 68.772147 1417356 4947.597832
0.245000 0.245067 2765.731987 34.844060 -745.916544 35.206359 99.586677 1539600 4947.597832
0.255000 0.255064 2616.638988 58.312379 -781.479505 -38.172039 526.465956 1669820 4947.597832
0.265000 0.265061 2369.011737 47.194644 -721.130909 3.084160 134.226138 1801086 4947.597832
0.275000 0.275060 2242.953871 47.347583 -766.241122 -26.329930 119.901582 1942244 4947.597832
0.285000 0.285062 2156.496424 42.978142 -795.713287 17.001853 303.642862 2084796 4947.597832
0.295000 0.295057 1954.758548 48.634601 -649.822138 -30.070364 319.354197 2231868 4947.597832
