#Data file /home/DATA/sbrieden/Patchy_dr12_mocks/postrecon/original/Patchy-Mocks-DR12CMASS-N-V6C-Portsmouth-mass_f0784b1850s10_0066.dat
#Random file /home/DATA/sbrieden/Patchy_dr12_mocks/postrecon/original/Patchy-Mocks-DR12CMASS-N-V6C-Portsmouth-mass_f0784b1850s10_0066.ran
#Number of data elements used: 592345
#Number of random elements used: 11771346
#Effective number of data elements weighted by wcol: 592345.000000
#Effective number of random elements weighted by wcol: 11771346.000000
#Effective number of data elements weighted by wcol*wsys: 592345.000000
#Effective number of random elements weighted by wcol*wsys: 11771346.000000
#Effective redshift value from data 0.597628
#Effective redshift value from randoms 0.597953
#Size of the Box 3700.000000 Mpc/h
#Area of the survey used 6851.000000 deg^2
#Value of alpha: 0.050304
#Normalization using data file
#Normalization using density
#Normalization 11.128800
#Shot noise factor 1.000000
#Shot noise value 4951.066360
#Type of Computation: FFT
#Number of grid cells: 512
#Type of Mass Assigment: TSC
#Type of Yamamoto: GridCenter
#Number of Interlacing steps: 2
#Grid Correction: yes
#Value of Om=0.310000
#Quadrupole as L2
#Octopole as L3
#Hexadecapole as L2L2
#k-centerbin	 k-eff	 Monopole-Pshotnoise	 Dipole	 Quadrupole	 Octopole	 Hexadecapole	 number of modes	 Pshotnoise
0.005000 0.007485 43839.286971 -1846.669040 -18121.819993 -11168.397735 -22567.821479 846 4951.066360
0.015000 0.016072 53038.885439 -1929.652739 -9443.036141 1013.617939 -7620.674408 6012 4951.066360
0.025000 0.025646 47665.546971 1656.235942 -5773.717483 -1132.903433 6164.544046 16172 4951.066360
0.035000 0.035469 35442.377425 667.427361 -4554.348130 -807.564495 -2490.002284 31764 4951.066360
0.045000 0.045378 26961.846943 391.119206 -2526.876663 159.409581 631.433799 52164 4951.066360
0.055000 0.055280 22969.764958 275.704709 -2810.436199 324.802983 4526.649042 77396 4951.066360
0.065000 0.065232 21035.397758 150.256407 -2539.817421 -516.961324 2678.468604 108936 4951.066360
0.075000 0.075229 17893.889980 194.630604 -1471.849031 209.837205 1168.405943 144980 4951.066360
0.085000 0.085193 15268.427742 228.113356 -1607.232092 -122.676028 87.705822 184854 4951.066360
0.095000 0.095166 12471.655857 192.643541 -1770.670552 47.910160 485.932038 232260 4951.066360
0.105000 0.105155 10597.853364 149.215388 -1517.315896 -151.344125 153.401742 282884 4951.066360
0.115000 0.115131 9709.939272 75.464774 -316.160860 -52.012707 85.295145 339084 4951.066360
0.125000 0.125124 8975.084240 51.593724 -312.642914 114.012668 163.084627 401864 4951.066360
0.135000 0.135125 8085.657336 139.213210 -734.060646 -95.136601 333.176387 468084 4951.066360
0.145000 0.145120 7002.290448 86.909093 -567.709084 8.212649 -82.802468 539940 4951.066360
0.155000 0.155118 6149.452685 81.252339 -714.142709 -48.061226 77.156008 617324 4951.066360
0.165000 0.165105 5513.816252 64.830412 -246.451682 55.326421 131.968969 697452 4951.066360
0.175000 0.175088 5043.551529 53.541092 -705.243583 -9.719338 237.910289 785846 4951.066360
0.185000 0.185089 4801.937209 54.806629 -386.993295 -31.340425 -244.874732 879528 4951.066360
0.195000 0.195093 4455.685045 62.097112 -714.997587 2.283869 -79.625045 976596 4951.066360
0.205000 0.205084 3990.384552 66.710518 -636.292828 -3.237309 -18.065174 1077212 4951.066360
0.215000 0.215076 3648.491494 57.782947 -627.958087 -8.452229 272.851967 1186908 4951.066360
0.225000 0.225076 3331.738255 39.448546 -504.270169 3.542120 199.000283 1299452 4951.066360
0.235000 0.235073 3102.295450 54.705321 -719.475800 -3.684187 111.438548 1417356 4951.066360
0.245000 0.245067 2881.005184 44.895775 -632.303522 -2.496232 175.704478 1539600 4951.066360
0.255000 0.255064 2691.458433 56.075032 -705.824337 -17.147533 115.166920 1669820 4951.066360
0.265000 0.265061 2496.351295 39.919268 -741.790865 3.635540 99.754040 1801086 4951.066360
0.275000 0.275060 2317.098251 52.496429 -618.251754 -4.314503 249.921900 1942244 4951.066360
0.285000 0.285062 2145.061632 51.647993 -626.418281 -27.784208 211.615296 2084796 4951.066360
0.295000 0.295057 2011.909947 38.223240 -748.754559 29.738830 254.500638 2231868 4951.066360
