#Data file /home/DATA/sbrieden/Patchy_dr12_mocks/postrecon/original/Patchy-Mocks-DR12CMASS-S-V6C-Portsmouth-mass_f0784b1850s10_0091.dat
#Random file /home/DATA/sbrieden/Patchy_dr12_mocks/postrecon/original/Patchy-Mocks-DR12CMASS-S-V6C-Portsmouth-mass_f0784b1850s10_0091.ran
#Number of data elements used: 211853
#Number of random elements used: 4283619
#Effective number of data elements weighted by wcol: 211853.000000
#Effective number of random elements weighted by wcol: 4283619.000000
#Effective number of data elements weighted by wcol*wsys: 211853.000000
#Effective number of random elements weighted by wcol*wsys: 4283619.000000
#Effective redshift value from data 0.597540
#Effective redshift value from randoms 0.596642
#Size of the Box 3700.000000 Mpc/h
#Area of the survey used 2525.000000 deg^2
#Value of alpha: 0.049890
#Normalization using data file
#Normalization using density
#Normalization 4.039253
#Shot noise factor 1.000000
#Shot noise value 5005.131024
#Type of Computation: FFT
#Number of grid cells: 512
#Type of Mass Assigment: TSC
#Type of Yamamoto: GridCenter
#Number of Interlacing steps: 2
#Grid Correction: yes
#Value of Om=0.310000
#Quadrupole as L2
#Octopole as L3
#Hexadecapole as L2L2
#k-centerbin	 k-eff	 Monopole-Pshotnoise	 Dipole	 Quadrupole	 Octopole	 Hexadecapole	 number of modes	 Pshotnoise
0.005000 0.007485 34012.812106 -1007.607211 17431.746886 11103.500985 32706.659723 846 5005.131024
0.015000 0.016072 50423.990226 -1967.247017 8583.141017 7004.279482 18520.227834 6012 5005.131024
0.025000 0.025646 45256.089633 1212.551103 -7706.333069 -434.843684 -8225.387325 16172 5005.131024
0.035000 0.035469 32395.320278 670.561381 -7399.477844 -1525.845733 3497.470444 31764 5005.131024
0.045000 0.045378 26934.872771 297.339548 -4420.230743 29.952783 -2011.068273 52164 5005.131024
0.055000 0.055280 23903.687746 231.124801 -2472.259677 -203.234911 929.704460 77396 5005.131024
0.065000 0.065232 19721.412101 290.603181 -183.995745 -170.719282 -508.567711 108936 5005.131024
0.075000 0.075229 16969.623760 145.863278 820.610810 205.538267 1289.567371 144980 5005.131024
0.085000 0.085193 14167.720883 263.540802 -2105.201325 -5.140822 1082.875555 184854 5005.131024
0.095000 0.095166 11390.369048 183.680079 -1191.674300 -176.973538 311.345240 232260 5005.131024
0.105000 0.105155 10040.569864 126.484709 -611.320120 -168.322009 -1027.442954 282884 5005.131024
0.115000 0.115131 9726.975771 36.878439 -317.273016 152.881786 -103.574942 339084 5005.131024
0.125000 0.125124 8163.320286 116.261674 -1412.392471 6.111049 119.482532 401864 5005.131024
0.135000 0.135125 7745.860007 47.188833 -1310.057588 -3.814494 166.618591 468084 5005.131024
0.145000 0.145120 6770.075927 134.534340 -850.972523 -31.158468 438.754954 539940 5005.131024
0.155000 0.155118 6035.973957 58.678989 -664.089654 59.374599 279.346878 617324 5005.131024
0.165000 0.165105 5377.046326 78.240437 -536.891737 -82.165072 736.864625 697452 5005.131024
0.175000 0.175088 4938.289900 47.351479 -982.681045 45.792902 100.040152 785846 5005.131024
0.185000 0.185089 4379.834438 49.101608 -1007.027600 25.817460 71.864294 879528 5005.131024
0.195000 0.195093 4320.354268 50.128254 -1144.186207 -48.181278 124.351436 976596 5005.131024
0.205000 0.205084 3739.885403 62.714298 -998.583954 12.846553 463.398275 1077212 5005.131024
0.215000 0.215076 3567.156877 57.551710 -1089.587535 -60.832111 34.804659 1186908 5005.131024
0.225000 0.225076 3205.986872 58.394963 -1009.147298 -4.505993 141.167216 1299452 5005.131024
0.235000 0.235073 2956.960913 51.338662 -826.326695 -30.799065 55.592093 1417356 5005.131024
0.245000 0.245067 2832.890532 39.370460 -814.004962 5.640411 326.144780 1539600 5005.131024
0.255000 0.255064 2567.705479 57.175805 -609.701585 -16.840989 253.727768 1669820 5005.131024
0.265000 0.265061 2337.733264 45.128469 -715.191929 12.471910 139.946469 1801086 5005.131024
0.275000 0.275060 2125.775393 42.695210 -754.183480 -0.297063 368.478035 1942244 5005.131024
0.285000 0.285062 2015.130025 43.976667 -676.513005 -27.261388 140.558970 2084796 5005.131024
0.295000 0.295057 1935.637825 46.687069 -864.809747 -1.881109 196.672134 2231868 5005.131024
