#Data file /home/DATA/sbrieden/Patchy_dr12_mocks/postrecon/original/Patchy-Mocks-DR12CMASS-S-V6C-Portsmouth-mass_f0784b1850s10_0082.dat
#Random file /home/DATA/sbrieden/Patchy_dr12_mocks/postrecon/original/Patchy-Mocks-DR12CMASS-S-V6C-Portsmouth-mass_f0784b1850s10_0082.ran
#Number of data elements used: 215396
#Number of random elements used: 4288124
#Effective number of data elements weighted by wcol: 215396.000000
#Effective number of random elements weighted by wcol: 4288124.000000
#Effective number of data elements weighted by wcol*wsys: 215396.000000
#Effective number of random elements weighted by wcol*wsys: 4288124.000000
#Effective redshift value from data 0.596613
#Effective redshift value from randoms 0.597118
#Size of the Box 3700.000000 Mpc/h
#Area of the survey used 2525.000000 deg^2
#Value of alpha: 0.050257
#Normalization using data file
#Normalization using density
#Normalization 4.092775
#Shot noise factor 1.000000
#Shot noise value 4927.070934
#Type of Computation: FFT
#Number of grid cells: 512
#Type of Mass Assigment: TSC
#Type of Yamamoto: GridCenter
#Number of Interlacing steps: 2
#Grid Correction: yes
#Value of Om=0.310000
#Quadrupole as L2
#Octopole as L3
#Hexadecapole as L2L2
#k-centerbin	 k-eff	 Monopole-Pshotnoise	 Dipole	 Quadrupole	 Octopole	 Hexadecapole	 number of modes	 Pshotnoise
0.005000 0.007485 44523.014496 -3519.248538 -19200.301919 4248.708458 1563.359919 846 4927.070934
0.015000 0.016072 37177.261872 343.990954 -8519.960018 -2130.089273 15944.703168 6012 4927.070934
0.025000 0.025646 43126.377098 100.142219 11236.344433 1679.826419 8385.337136 16172 4927.070934
0.035000 0.035469 33366.547496 1091.790141 -1577.907184 -1382.519556 2832.659744 31764 4927.070934
0.045000 0.045378 25729.506930 220.721281 2193.237828 425.362316 -2979.940143 52164 4927.070934
0.055000 0.055280 22952.710068 59.053445 -3017.964673 412.861233 -2966.731616 77396 4927.070934
0.065000 0.065232 19420.265416 179.919454 -3541.083720 -482.548491 -2137.686801 108936 4927.070934
0.075000 0.075229 17241.604201 328.491398 -685.616003 -246.122254 -2013.308296 144980 4927.070934
0.085000 0.085193 15060.412973 122.355722 -734.085771 309.821060 -35.443989 184854 4927.070934
0.095000 0.095166 12304.232458 203.489341 -818.410912 -107.254292 458.691017 232260 4927.070934
0.105000 0.105155 10344.154802 139.667719 -1891.387941 -19.754191 -617.329035 282884 4927.070934
0.115000 0.115131 9266.096488 84.459488 -1270.782404 -15.494798 -181.869453 339084 4927.070934
0.125000 0.125124 8457.480704 71.728359 -1590.125330 4.814796 179.936489 401864 4927.070934
0.135000 0.135125 7737.893198 99.021590 -1421.765084 -127.188009 -527.680838 468084 4927.070934
0.145000 0.145120 7038.639618 104.372393 -919.056529 -35.721854 -145.414892 539940 4927.070934
0.155000 0.155118 5894.849513 68.929502 -430.010631 61.304575 141.353998 617324 4927.070934
0.165000 0.165105 5522.246961 62.922214 -699.042654 -20.179025 111.095650 697452 4927.070934
0.175000 0.175088 4996.301701 58.380810 -726.335000 -18.386896 -99.416206 785846 4927.070934
0.185000 0.185089 4532.311398 52.352582 -757.875376 -7.968767 -92.767999 879528 4927.070934
0.195000 0.195093 4394.629072 44.387994 -655.595534 -7.278840 152.920569 976596 4927.070934
0.205000 0.205084 4058.018556 67.693882 -829.472972 -1.018754 129.617975 1077212 4927.070934
0.215000 0.215076 3587.281101 63.732964 -614.064291 -46.413941 89.214611 1186908 4927.070934
0.225000 0.225076 3279.613245 47.808831 -390.838440 29.434723 273.351487 1299452 4927.070934
0.235000 0.235073 3072.945219 56.892634 -684.175003 -26.111618 128.775614 1417356 4927.070934
0.245000 0.245067 2874.606938 37.135238 -466.395752 -4.741631 55.992692 1539600 4927.070934
0.255000 0.255064 2749.828535 54.322684 -601.429985 -2.934450 176.713096 1669820 4927.070934
0.265000 0.265061 2461.697321 49.889371 -566.764318 26.705318 289.103777 1801086 4927.070934
0.275000 0.275060 2207.152122 43.880617 -613.919359 -33.085932 165.372413 1942244 4927.070934
0.285000 0.285062 2122.641652 47.653712 -602.549401 8.089435 527.537563 2084796 4927.070934
0.295000 0.295057 2017.361816 43.529324 -712.935499 -16.051754 246.851752 2231868 4927.070934
