#Data file /home/DATA/sbrieden/Patchy_dr12_mocks/postrecon/original/Patchy-Mocks-DR12CMASS-N-V6C-Portsmouth-mass_f0784b1850s10_0025.dat
#Random file /home/DATA/sbrieden/Patchy_dr12_mocks/postrecon/original/Patchy-Mocks-DR12CMASS-N-V6C-Portsmouth-mass_f0784b1850s10_0025.ran
#Number of data elements used: 586410
#Number of random elements used: 11767660
#Effective number of data elements weighted by wcol: 586410.000000
#Effective number of random elements weighted by wcol: 11767660.000000
#Effective number of data elements weighted by wcol*wsys: 586410.000000
#Effective number of random elements weighted by wcol*wsys: 11767660.000000
#Effective redshift value from data 0.597665
#Effective redshift value from randoms 0.597896
#Size of the Box 3700.000000 Mpc/h
#Area of the survey used 6851.000000 deg^2
#Value of alpha: 0.049879
#Normalization using data file
#Normalization using density
#Normalization 11.024489
#Shot noise factor 1.000000
#Shot noise value 4955.826065
#Type of Computation: FFT
#Number of grid cells: 512
#Type of Mass Assigment: TSC
#Type of Yamamoto: GridCenter
#Number of Interlacing steps: 2
#Grid Correction: yes
#Value of Om=0.310000
#Quadrupole as L2
#Octopole as L3
#Hexadecapole as L2L2
#k-centerbin	 k-eff	 Monopole-Pshotnoise	 Dipole	 Quadrupole	 Octopole	 Hexadecapole	 number of modes	 Pshotnoise
0.005000 0.007485 45292.867020 -1852.604602 5046.635905 7807.901471 6520.251871 846 4955.826065
0.015000 0.016072 49418.161132 760.202298 -13414.065611 -2602.124086 1455.871788 6012 4955.826065
0.025000 0.025646 43220.795973 134.231448 -5899.064509 501.293059 3664.090877 16172 4955.826065
0.035000 0.035469 34422.465876 594.692625 -9650.319682 -968.827019 2565.854325 31764 4955.826065
0.045000 0.045378 26145.800173 475.833095 -3975.181304 -545.516121 2129.828535 52164 4955.826065
0.055000 0.055280 23139.146778 191.337248 -1766.367532 381.710586 2617.935095 77396 4955.826065
0.065000 0.065232 20365.679925 117.383622 -1580.765072 -197.920731 -538.318666 108936 4955.826065
0.075000 0.075229 18364.021704 330.589177 -1359.925475 -404.648216 133.585085 144980 4955.826065
0.085000 0.085193 14962.985081 164.375256 -1220.239003 269.875095 -776.881424 184854 4955.826065
0.095000 0.095166 12504.166069 231.840162 -2107.824042 -191.573305 207.900878 232260 4955.826065
0.105000 0.105155 10406.387129 92.145592 -676.890104 100.125537 34.456810 282884 4955.826065
0.115000 0.115131 9640.224027 81.784932 -1051.438426 -2.168669 298.214154 339084 4955.826065
0.125000 0.125124 8589.429716 101.074148 -1003.761180 -50.529844 315.161439 401864 4955.826065
0.135000 0.135125 7681.544708 102.965539 -945.856321 -76.296565 -163.722490 468084 4955.826065
0.145000 0.145120 7055.455942 76.062764 -917.443607 1.942688 326.239417 539940 4955.826065
0.155000 0.155118 6127.242913 86.303594 -441.056868 0.854077 -12.007586 617324 4955.826065
0.165000 0.165105 5512.910916 61.273819 -388.816172 -26.518005 140.946301 697452 4955.826065
0.175000 0.175088 5151.003942 45.946183 -662.942451 32.550833 47.603747 785846 4955.826065
0.185000 0.185089 4772.382077 71.677712 -714.866069 -18.310564 177.487482 879528 4955.826065
0.195000 0.195093 4405.847096 65.720638 -814.972349 -25.135802 -80.268030 976596 4955.826065
0.205000 0.205084 3977.119105 47.912511 -700.213375 8.500495 259.082661 1077212 4955.826065
0.215000 0.215076 3631.722579 63.347138 -537.931006 -27.844701 183.799178 1186908 4955.826065
0.225000 0.225076 3360.398326 45.902938 -582.099037 10.156852 -20.542972 1299452 4955.826065
0.235000 0.235073 3044.633018 48.510120 -687.478910 8.839080 123.742028 1417356 4955.826065
0.245000 0.245067 2855.266910 43.648962 -581.114296 -19.260277 165.101346 1539600 4955.826065
0.255000 0.255064 2682.436132 54.052948 -734.733780 12.948078 52.140634 1669820 4955.826065
0.265000 0.265061 2473.787811 48.356493 -738.163775 -19.957906 155.787818 1801086 4955.826065
0.275000 0.275060 2306.771341 45.680873 -791.862636 18.631268 165.864590 1942244 4955.826065
0.285000 0.285062 2117.702196 48.196861 -797.450268 -31.361619 211.484731 2084796 4955.826065
0.295000 0.295057 1979.736641 45.181870 -697.573761 5.081821 324.864606 2231868 4955.826065
