#Data file /home/DATA/sbrieden/Patchy_dr12_mocks/postrecon/original/Patchy-Mocks-DR12CMASS-S-V6C-Portsmouth-mass_f0784b1850s10_0048.dat
#Random file /home/DATA/sbrieden/Patchy_dr12_mocks/postrecon/original/Patchy-Mocks-DR12CMASS-S-V6C-Portsmouth-mass_f0784b1850s10_0048.ran
#Number of data elements used: 214435
#Number of random elements used: 4283839
#Effective number of data elements weighted by wcol: 214435.000000
#Effective number of random elements weighted by wcol: 4283839.000000
#Effective number of data elements weighted by wcol*wsys: 214435.000000
#Effective number of random elements weighted by wcol*wsys: 4283839.000000
#Effective redshift value from data 0.596688
#Effective redshift value from randoms 0.597308
#Size of the Box 3700.000000 Mpc/h
#Area of the survey used 2525.000000 deg^2
#Value of alpha: 0.049949
#Normalization using data file
#Normalization using density
#Normalization 4.065408
#Shot noise factor 1.000000
#Shot noise value 4932.431251
#Type of Computation: FFT
#Number of grid cells: 512
#Type of Mass Assigment: TSC
#Type of Yamamoto: GridCenter
#Number of Interlacing steps: 2
#Grid Correction: yes
#Value of Om=0.310000
#Quadrupole as L2
#Octopole as L3
#Hexadecapole as L2L2
#k-centerbin	 k-eff	 Monopole-Pshotnoise	 Dipole	 Quadrupole	 Octopole	 Hexadecapole	 number of modes	 Pshotnoise
0.005000 0.007485 38515.327637 -2114.016453 -15801.879018 -7980.970495 -3849.266608 846 4932.431251
0.015000 0.016072 54885.260665 48.996550 5.166404 -2410.836768 -20556.073030 6012 4932.431251
0.025000 0.025646 43844.941246 1519.114207 -7953.481197 -2160.146905 -4484.670473 16172 4932.431251
0.035000 0.035469 30271.989661 124.628588 -1112.847849 1315.660075 -972.066326 31764 4932.431251
0.045000 0.045378 25933.348693 217.239603 -3593.832490 -810.836145 -959.919356 52164 4932.431251
0.055000 0.055280 24254.312878 240.019698 -2237.492152 82.919155 -1740.273464 77396 4932.431251
0.065000 0.065232 20903.731521 258.693809 -508.552578 -118.227312 890.841766 108936 4932.431251
0.075000 0.075229 17964.633644 305.054489 -809.308987 -28.277076 1559.952201 144980 4932.431251
0.085000 0.085193 14265.010984 174.412936 -1699.557988 279.101790 81.101836 184854 4932.431251
0.095000 0.095166 11505.773030 219.071909 -2232.601801 -217.789506 568.854134 232260 4932.431251
0.105000 0.105155 9817.539016 42.767128 -1503.584242 -49.138790 167.512624 282884 4932.431251
0.115000 0.115131 9603.966275 80.784120 -2052.751078 -38.378757 -201.795016 339084 4932.431251
0.125000 0.125124 8626.663040 84.649904 -1317.942701 17.354031 -148.965889 401864 4932.431251
0.135000 0.135125 8002.679930 71.983421 -1252.235452 -83.236810 -45.763271 468084 4932.431251
0.145000 0.145120 7048.414868 152.204409 -816.790708 -26.658347 62.424131 539940 4932.431251
0.155000 0.155118 5893.077608 51.957731 -727.060153 40.848852 184.530696 617324 4932.431251
0.165000 0.165105 5470.695094 62.932802 -872.766693 -37.915777 77.011822 697452 4932.431251
0.175000 0.175088 4945.798938 56.818373 -770.510740 8.994587 239.222334 785846 4932.431251
0.185000 0.185089 4576.530264 78.367745 -474.677680 -92.463043 296.014970 879528 4932.431251
0.195000 0.195093 4262.911298 45.488552 -569.930775 45.018948 112.451870 976596 4932.431251
0.205000 0.205084 4082.798038 22.902218 -696.825856 31.209525 103.237834 1077212 4932.431251
0.215000 0.215076 3677.051767 80.431927 -765.937560 -37.869624 377.486208 1186908 4932.431251
0.225000 0.225076 3216.520980 78.993896 -623.036343 -25.834988 220.752816 1299452 4932.431251
0.235000 0.235073 2888.168700 29.957049 -622.505314 4.938618 305.051039 1417356 4932.431251
0.245000 0.245067 2838.891343 39.366646 -701.648609 -13.422171 -76.260959 1539600 4932.431251
0.255000 0.255064 2619.887798 50.267305 -603.531356 10.403776 101.079763 1669820 4932.431251
0.265000 0.265061 2443.545999 55.423268 -615.887647 -27.199349 64.441759 1801086 4932.431251
0.275000 0.275060 2279.419059 39.921411 -616.770000 20.022825 148.147145 1942244 4932.431251
0.285000 0.285062 2079.490075 51.410347 -715.594045 -13.256277 125.430255 2084796 4932.431251
0.295000 0.295057 1920.121555 47.768972 -771.830807 -8.244501 282.284750 2231868 4932.431251
