#Data file /home/DATA/sbrieden/Patchy_dr12_mocks/postrecon/original/Patchy-Mocks-DR12LOWZ-S-V5C-Portsmouth-mass_f0693b1850s10_0003.dat
#Random file /home/DATA/sbrieden/Patchy_dr12_mocks/postrecon/original/Patchy-Mocks-DR12LOWZ-S-V5C-Portsmouth-mass_f0693b1850s10_0003.ran
#Number of data elements used: 99715
#Number of random elements used: 2009348
#Effective number of data elements weighted by wcol: 99715.000000
#Effective number of random elements weighted by wcol: 2009348.000000
#Effective number of data elements weighted by wcol*wsys: 99715.000000
#Effective number of random elements weighted by wcol*wsys: 2009348.000000
#Effective redshift value from data 0.330344
#Effective redshift value from randoms 0.330038
#Size of the Box 2500.000000 Mpc/h
#Area of the survey used 2501.000000 deg^2
#Value of alpha: 0.049698
#Normalization using data file
#Normalization using density
#Normalization 1.849771
#Shot noise factor 1.000000
#Shot noise value 3666.774580
#Type of Computation: FFT
#Number of grid cells: 512
#Type of Mass Assigment: TSC
#Type of Yamamoto: GridCenter
#Number of Interlacing steps: 2
#Grid Correction: yes
#Value of Om=0.310000
#Quadrupole as L2
#Octopole as L3
#Hexadecapole as L2L2
#k-centerbin	 k-eff	 Monopole-Pshotnoise	 Dipole	 Quadrupole	 Octopole	 Hexadecapole	 number of modes	 Pshotnoise
0.005000 0.007385 37098.758742 -4324.734690 -4828.784035 -22806.251244 -28973.765933 250 3666.774580
0.015000 0.016012 49929.631545 -524.528822 5460.546990 2390.636131 -28910.554543 1852 3666.774580
0.025000 0.025646 45349.505158 2550.148694 -4076.479102 -5127.665485 -5322.153150 5020 3666.774580
0.035000 0.035469 35396.938390 127.389189 2136.862333 2174.881898 7739.012861 9756 3666.774580
0.045000 0.045368 28596.167346 1144.949632 -1069.058599 15.944562 -2495.557379 16108 3666.774580
0.055000 0.055314 25287.714156 44.496166 -4055.619645 -353.676316 -1687.685510 24064 3666.774580
0.065000 0.065258 21854.700529 496.451469 2767.010491 405.333961 5534.627958 33396 3666.774580
0.075000 0.075209 19024.917073 193.694889 -125.756203 78.855218 7.150275 44596 3666.774580
0.085000 0.085175 16042.060242 329.541480 -1858.236244 80.555801 -549.262263 57124 3666.774580
0.095000 0.095157 13282.807305 434.034897 -1937.133558 -288.384789 -548.599813 71620 3666.774580
0.105000 0.105162 11782.015249 196.255227 714.676576 -39.127199 3432.450879 87552 3666.774580
0.115000 0.115148 10490.127092 145.855090 -92.584704 136.806043 2330.434156 104524 3666.774580
0.125000 0.125146 8888.441758 177.322842 23.334127 -142.862020 -787.836625 124228 3666.774580
0.135000 0.135146 8511.856280 78.868888 -515.428096 -22.523502 -1330.450356 144204 3666.774580
0.145000 0.145132 7311.846272 203.758971 160.641091 37.244506 85.086354 166492 3666.774580
0.155000 0.155114 6194.809337 80.124156 -671.353402 106.722554 -415.493343 189964 3666.774580
0.165000 0.165102 5515.345364 93.659201 -876.288146 -40.429276 -238.003094 215640 3666.774580
0.175000 0.175105 5259.621248 44.738674 -499.345503 -144.239546 -646.353989 242836 3666.774580
0.185000 0.185097 4839.992424 73.421060 -705.221904 68.877766 -35.882268 270556 3666.774580
0.195000 0.195085 4584.001519 46.261251 -552.574788 67.794792 427.348234 301084 3666.774580
0.205000 0.205080 4263.839034 60.620475 -787.172715 -115.294437 -336.945957 332628 3666.774580
0.215000 0.215092 3613.330184 112.013952 -521.892779 0.957976 -193.193069 367216 3666.774580
0.225000 0.225099 3299.575240 36.045422 -898.204343 10.757603 174.211915 400444 3666.774580
0.235000 0.235081 3160.044668 32.009068 -718.418716 42.178743 -91.441511 436500 3666.774580
0.245000 0.245077 2880.104289 80.342571 -933.113651 -63.617749 23.195308 475900 3666.774580
0.255000 0.255082 2602.379803 31.711191 -689.059845 -0.305192 9.292375 514900 3666.774580
0.265000 0.265074 2426.035818 45.053854 -765.622597 3.680218 119.132854 555408 3666.774580
0.275000 0.275066 2204.880338 40.128800 -734.451886 37.922397 459.617723 598684 3666.774580
0.285000 0.285066 2084.434964 34.058918 -910.893486 -33.887757 306.679675 643228 3666.774580
0.295000 0.295058 2011.155808 30.141303 -870.502467 -25.778331 362.404847 688036 3666.774580
