#Data file /home/DATA/sbrieden/Patchy_dr12_mocks/postrecon/original/Patchy-Mocks-DR12LOWZ-S-V5C-Portsmouth-mass_f0693b1850s10_0015.dat
#Random file /home/DATA/sbrieden/Patchy_dr12_mocks/postrecon/original/Patchy-Mocks-DR12LOWZ-S-V5C-Portsmouth-mass_f0693b1850s10_0015.ran
#Number of data elements used: 102028
#Number of random elements used: 2006219
#Effective number of data elements weighted by wcol: 102028.000000
#Effective number of random elements weighted by wcol: 2006219.000000
#Effective number of data elements weighted by wcol*wsys: 102028.000000
#Effective number of random elements weighted by wcol*wsys: 2006219.000000
#Effective redshift value from data 0.330371
#Effective redshift value from randoms 0.329982
#Size of the Box 2500.000000 Mpc/h
#Area of the survey used 2501.000000 deg^2
#Value of alpha: 0.050899
#Normalization using data file
#Normalization using density
#Normalization 1.891690
#Shot noise factor 1.000000
#Shot noise value 3663.075673
#Type of Computation: FFT
#Number of grid cells: 512
#Type of Mass Assigment: TSC
#Type of Yamamoto: GridCenter
#Number of Interlacing steps: 2
#Grid Correction: yes
#Value of Om=0.310000
#Quadrupole as L2
#Octopole as L3
#Hexadecapole as L2L2
#k-centerbin	 k-eff	 Monopole-Pshotnoise	 Dipole	 Quadrupole	 Octopole	 Hexadecapole	 number of modes	 Pshotnoise
0.005000 0.007385 25149.265318 -6070.078603 -21283.857039 -8621.881887 10404.740211 250 3663.075673
0.015000 0.016012 41579.833147 -181.428947 14705.384853 -8033.389976 -9295.843796 1852 3663.075673
0.025000 0.025646 46408.663443 2316.156236 29532.208494 9234.482820 -2038.820421 5020 3663.075673
0.035000 0.035469 36073.465643 -172.989061 5050.258735 3805.067760 18178.950831 9756 3663.075673
0.045000 0.045368 29644.045930 1341.236025 -4043.042742 -1466.193751 2083.239552 16108 3663.075673
0.055000 0.055314 24515.661993 137.807571 1321.569952 373.582005 1424.277867 24064 3663.075673
0.065000 0.065258 23071.273190 291.821135 -650.138481 626.333406 2014.012572 33396 3663.075673
0.075000 0.075209 20007.310284 282.446951 -3842.894087 -241.288272 -262.620104 44596 3663.075673
0.085000 0.085175 18118.054571 407.207337 -3741.980004 -424.620038 -354.786735 57124 3663.075673
0.095000 0.095157 14038.596273 431.746444 -1599.937901 -413.922938 -2510.790631 71620 3663.075673
0.105000 0.105162 12099.497503 221.914534 -1078.272341 319.089754 556.773813 87552 3663.075673
0.115000 0.115148 10423.401537 120.231769 -1054.789891 -173.426561 577.954015 104524 3663.075673
0.125000 0.125146 9356.856484 120.401358 -376.808943 -56.230459 244.986447 124228 3663.075673
0.135000 0.135146 8570.515244 179.161868 -593.648642 46.804039 -895.730468 144204 3663.075673
0.145000 0.145132 7256.238891 134.438131 -1106.655999 -16.896356 644.142462 166492 3663.075673
0.155000 0.155114 6765.546453 58.971442 -502.559939 -65.193918 1465.505409 189964 3663.075673
0.165000 0.165102 5793.358003 150.951433 -602.703800 67.307713 345.612106 215640 3663.075673
0.175000 0.175105 5374.796082 37.621329 -946.087917 32.678848 927.012362 242836 3663.075673
0.185000 0.185097 5034.410509 71.063156 -657.634874 -93.714901 -411.702210 270556 3663.075673
0.195000 0.195085 4639.679795 44.523410 -882.029475 28.184974 -521.437986 301084 3663.075673
0.205000 0.205080 4293.614908 52.310793 -1045.672137 64.628659 -70.602713 332628 3663.075673
0.215000 0.215092 3760.710690 106.635999 -1087.933055 -89.584863 187.057130 367216 3663.075673
0.225000 0.225099 3382.495434 68.519368 -796.835567 10.305569 356.922108 400444 3663.075673
0.235000 0.235081 3102.775751 43.934210 -1026.913855 -41.003804 225.328574 436500 3663.075673
0.245000 0.245077 2905.335066 34.871957 -840.667364 -11.475598 -42.205080 475900 3663.075673
0.255000 0.255082 2731.008339 42.181351 -727.804513 -18.176274 64.189766 514900 3663.075673
0.265000 0.265074 2534.570982 51.007004 -889.547236 26.634206 357.825048 555408 3663.075673
0.275000 0.275066 2370.490955 48.017884 -892.943276 -16.700557 359.256956 598684 3663.075673
0.285000 0.285066 2244.539128 19.861717 -782.821595 -6.178013 448.066543 643228 3663.075673
0.295000 0.295058 2051.568382 59.262738 -735.132192 -7.172130 374.810097 688036 3663.075673
