#Data file /home/DATA/sbrieden/Patchy_dr12_mocks/postrecon/original/Patchy-Mocks-DR12CMASS-S-V6C-Portsmouth-mass_f0784b1850s10_0064.dat
#Random file /home/DATA/sbrieden/Patchy_dr12_mocks/postrecon/original/Patchy-Mocks-DR12CMASS-S-V6C-Portsmouth-mass_f0784b1850s10_0064.ran
#Number of data elements used: 214674
#Number of random elements used: 4286411
#Effective number of data elements weighted by wcol: 214674.000000
#Effective number of random elements weighted by wcol: 4286411.000000
#Effective number of data elements weighted by wcol*wsys: 214674.000000
#Effective number of random elements weighted by wcol*wsys: 4286411.000000
#Effective redshift value from data 0.596936
#Effective redshift value from randoms 0.596989
#Size of the Box 3700.000000 Mpc/h
#Area of the survey used 2525.000000 deg^2
#Value of alpha: 0.050122
#Normalization using data file
#Normalization using density
#Normalization 4.075879
#Shot noise factor 1.000000
#Shot noise value 4941.943095
#Type of Computation: FFT
#Number of grid cells: 512
#Type of Mass Assigment: TSC
#Type of Yamamoto: GridCenter
#Number of Interlacing steps: 2
#Grid Correction: yes
#Value of Om=0.310000
#Quadrupole as L2
#Octopole as L3
#Hexadecapole as L2L2
#k-centerbin	 k-eff	 Monopole-Pshotnoise	 Dipole	 Quadrupole	 Octopole	 Hexadecapole	 number of modes	 Pshotnoise
0.005000 0.007485 34864.261939 -7530.771702 -23542.763302 8246.463023 15452.494587 846 4941.943095
0.015000 0.016072 49295.549548 125.733099 -19768.667368 -5620.890599 4231.625971 6012 4941.943095
0.025000 0.025646 46728.882371 1133.890352 -8797.652580 -2125.025766 836.448187 16172 4941.943095
0.035000 0.035469 34905.498910 -94.997586 -9386.168553 1289.581715 1961.378476 31764 4941.943095
0.045000 0.045378 26130.598438 659.524435 -8803.634508 -748.636976 -1111.802942 52164 4941.943095
0.055000 0.055280 20775.504526 449.000315 575.599711 -750.338336 955.892527 77396 4941.943095
0.065000 0.065232 19208.590441 21.803802 632.214817 241.389642 -534.060710 108936 4941.943095
0.075000 0.075229 17059.769202 386.200696 -46.950363 -435.545717 -1548.821787 144980 4941.943095
0.085000 0.085193 13727.351256 130.122014 109.993074 383.687817 64.101980 184854 4941.943095
0.095000 0.095166 11647.189827 148.587518 -1036.182901 97.902846 1054.827560 232260 4941.943095
0.105000 0.105155 9631.400217 170.176325 -1303.658735 -148.731908 741.521652 282884 4941.943095
0.115000 0.115131 8918.151012 4.222887 -495.855658 47.604198 217.866249 339084 4941.943095
0.125000 0.125124 8544.866565 72.669728 -1168.060843 -110.134082 236.022641 401864 4941.943095
0.135000 0.135125 8104.395443 113.822320 -698.270835 22.481665 152.012583 468084 4941.943095
0.145000 0.145120 6847.198005 69.437788 -821.368573 37.518452 -217.427116 539940 4941.943095
0.155000 0.155118 6062.559432 111.945316 -1122.152783 -74.785934 191.937299 617324 4941.943095
0.165000 0.165105 5296.579121 45.369101 -688.045024 -5.208496 -421.378647 697452 4941.943095
0.175000 0.175088 5069.725619 64.721375 -255.428892 -35.226991 203.079962 785846 4941.943095
0.185000 0.185089 4709.067183 59.373716 -373.310503 -7.051301 -26.098516 879528 4941.943095
0.195000 0.195093 4415.596485 50.369349 -585.271827 29.312807 -202.533664 976596 4941.943095
0.205000 0.205084 3986.129542 62.220858 -623.608835 3.598616 210.052996 1077212 4941.943095
0.215000 0.215076 3558.098015 72.856386 -552.450602 -16.721381 410.053878 1186908 4941.943095
0.225000 0.225076 3176.238585 38.431298 -607.021922 20.352707 528.100402 1299452 4941.943095
0.235000 0.235073 3040.694294 42.082709 -806.953278 -26.469427 337.055395 1417356 4941.943095
0.245000 0.245067 2917.428508 34.240311 -746.035489 27.728616 280.054084 1539600 4941.943095
0.255000 0.255064 2697.841036 71.306062 -683.724331 -22.068748 214.392499 1669820 4941.943095
0.265000 0.265061 2336.030186 41.433796 -927.543068 -3.933592 539.139556 1801086 4941.943095
0.275000 0.275060 2251.582220 42.992354 -708.934234 -10.361859 305.677537 1942244 4941.943095
0.285000 0.285062 2114.468296 49.798331 -830.556353 4.387206 247.486913 2084796 4941.943095
0.295000 0.295057 1994.138265 40.781189 -813.848742 -10.960133 334.883182 2231868 4941.943095
