#Data file /home/DATA/sbrieden/Patchy_dr12_mocks/postrecon/original/Patchy-Mocks-DR12LOWZ-S-V5C-Portsmouth-mass_f0693b1850s10_0064.dat
#Random file /home/DATA/sbrieden/Patchy_dr12_mocks/postrecon/original/Patchy-Mocks-DR12LOWZ-S-V5C-Portsmouth-mass_f0693b1850s10_0064.ran
#Number of data elements used: 100604
#Number of random elements used: 2003752
#Effective number of data elements weighted by wcol: 100604.000000
#Effective number of random elements weighted by wcol: 2003752.000000
#Effective number of data elements weighted by wcol*wsys: 100604.000000
#Effective number of random elements weighted by wcol*wsys: 2003752.000000
#Effective redshift value from data 0.330180
#Effective redshift value from randoms 0.330146
#Size of the Box 2500.000000 Mpc/h
#Area of the survey used 2501.000000 deg^2
#Value of alpha: 0.050246
#Normalization using data file
#Normalization using density
#Normalization 1.866558
#Shot noise factor 1.000000
#Shot noise value 3663.241283
#Type of Computation: FFT
#Number of grid cells: 512
#Type of Mass Assigment: TSC
#Type of Yamamoto: GridCenter
#Number of Interlacing steps: 2
#Grid Correction: yes
#Value of Om=0.310000
#Quadrupole as L2
#Octopole as L3
#Hexadecapole as L2L2
#k-centerbin	 k-eff	 Monopole-Pshotnoise	 Dipole	 Quadrupole	 Octopole	 Hexadecapole	 number of modes	 Pshotnoise
0.005000 0.007385 30475.790415 -8685.414591 -10277.493963 3739.313735 13754.171316 250 3663.241283
0.015000 0.016012 48107.827465 1056.612636 -5466.852491 -12144.417720 -17546.588851 1852 3663.241283
0.025000 0.025646 40266.215049 0.718448 -3114.898531 1706.206948 -13421.274013 5020 3663.241283
0.035000 0.035469 35959.454934 634.041039 -11005.926696 -2166.324080 -11642.416281 9756 3663.241283
0.045000 0.045368 31509.456332 661.198244 -8682.887385 -2206.752668 -10549.978573 16108 3663.241283
0.055000 0.055314 25614.244197 688.035982 -3007.742829 -13.017207 -6213.444384 24064 3663.241283
0.065000 0.065258 22512.716605 35.180310 895.014956 -1211.064148 606.371181 33396 3663.241283
0.075000 0.075209 21565.186433 768.919990 761.441801 537.749530 -4100.135889 44596 3663.241283
0.085000 0.085175 15699.593764 291.872584 -881.205234 361.750387 1433.365308 57124 3663.241283
0.095000 0.095157 12764.939930 271.314520 -1599.294794 43.418669 572.839429 71620 3663.241283
0.105000 0.105162 11094.441733 257.578388 -1591.592968 -131.658915 670.220866 87552 3663.241283
0.115000 0.115148 9931.654374 26.324495 -1375.573360 -101.843772 71.009797 104524 3663.241283
0.125000 0.125146 9577.939213 168.208686 -865.558344 -14.053151 -69.940717 124228 3663.241283
0.135000 0.135146 8560.876156 111.014126 -706.013177 -92.678011 -13.923831 144204 3663.241283
0.145000 0.145132 7689.916841 131.171940 -560.443436 128.529882 1176.139518 166492 3663.241283
0.155000 0.155114 6666.324216 113.191913 -1253.522918 85.934090 421.519784 189964 3663.241283
0.165000 0.165102 5817.659061 136.232470 -1208.624118 -263.977074 -233.372462 215640 3663.241283
0.175000 0.175105 5341.275504 57.472921 -740.845947 92.329922 -312.444082 242836 3663.241283
0.185000 0.185097 5013.104678 53.160188 -1026.994265 72.585262 779.381910 270556 3663.241283
0.195000 0.195085 4505.503706 91.711562 -1007.607681 -61.916483 121.368644 301084 3663.241283
0.205000 0.205080 4137.159148 52.764494 -1031.656031 -82.786525 204.099340 332628 3663.241283
0.215000 0.215092 3701.063992 92.990475 -691.348140 -45.671987 -14.820804 367216 3663.241283
0.225000 0.225099 3361.230008 20.239063 -965.147986 47.972093 -216.563768 400444 3663.241283
0.235000 0.235081 3195.066085 70.472337 -966.194568 17.818378 58.200730 436500 3663.241283
0.245000 0.245077 2892.054248 44.197584 -1017.986320 -46.245455 440.504766 475900 3663.241283
0.255000 0.255082 2629.537354 57.240859 -640.963129 -62.102209 132.268188 514900 3663.241283
0.265000 0.265074 2466.622195 22.639513 -644.912493 29.528897 388.874702 555408 3663.241283
0.275000 0.275066 2352.812498 37.311392 -651.329356 -34.410652 317.787986 598684 3663.241283
0.285000 0.285066 2262.966724 47.023592 -605.184833 -13.116982 203.587296 643228 3663.241283
0.295000 0.295058 2028.975474 43.653439 -710.463578 63.005109 230.767015 688036 3663.241283
