#Data file /home/DATA/sbrieden/Patchy_dr12_mocks/postrecon/original/Patchy-Mocks-DR12CMASS-N-V6C-Portsmouth-mass_f0784b1850s10_0068.dat
#Random file /home/DATA/sbrieden/Patchy_dr12_mocks/postrecon/original/Patchy-Mocks-DR12CMASS-N-V6C-Portsmouth-mass_f0784b1850s10_0068.ran
#Number of data elements used: 589270
#Number of random elements used: 11764792
#Effective number of data elements weighted by wcol: 589270.000000
#Effective number of random elements weighted by wcol: 11764792.000000
#Effective number of data elements weighted by wcol*wsys: 589270.000000
#Effective number of random elements weighted by wcol*wsys: 11764792.000000
#Effective redshift value from data 0.597580
#Effective redshift value from randoms 0.598039
#Size of the Box 3700.000000 Mpc/h
#Area of the survey used 6851.000000 deg^2
#Value of alpha: 0.050050
#Normalization using data file
#Normalization using density
#Normalization 11.061047
#Shot noise factor 1.000000
#Shot noise value 4962.343949
#Type of Computation: FFT
#Number of grid cells: 512
#Type of Mass Assigment: TSC
#Type of Yamamoto: GridCenter
#Number of Interlacing steps: 2
#Grid Correction: yes
#Value of Om=0.310000
#Quadrupole as L2
#Octopole as L3
#Hexadecapole as L2L2
#k-centerbin	 k-eff	 Monopole-Pshotnoise	 Dipole	 Quadrupole	 Octopole	 Hexadecapole	 number of modes	 Pshotnoise
0.005000 0.007485 57996.628865 -3842.052820 -22354.808541 -1530.992039 8553.121972 846 4962.343949
0.015000 0.016072 55359.886428 161.772439 -5701.612071 -1360.953078 7230.827230 6012 4962.343949
0.025000 0.025646 43750.491535 1371.489000 -1567.046028 -0.237525 -9454.107697 16172 4962.343949
0.035000 0.035469 34685.950222 309.028193 -7201.545456 125.599844 671.643807 31764 4962.343949
0.045000 0.045378 27540.127555 284.083072 -2467.301195 -457.435657 1383.381355 52164 4962.343949
0.055000 0.055280 24611.792737 423.878014 -2738.518108 -213.035591 -323.207636 77396 4962.343949
0.065000 0.065232 20834.308096 243.190887 -1766.090004 -445.701195 -2069.798022 108936 4962.343949
0.075000 0.075229 17907.932755 138.145439 -1241.944567 131.020393 1248.228251 144980 4962.343949
0.085000 0.085193 15216.613777 296.652969 -1341.171512 -71.593501 -461.467456 184854 4962.343949
0.095000 0.095166 12472.966576 166.862535 -1194.384563 137.990333 614.551622 232260 4962.343949
0.105000 0.105155 10453.187410 125.928036 -946.921670 -139.801330 1057.089488 282884 4962.343949
0.115000 0.115131 9482.109308 98.893057 -817.350425 -17.403009 154.799344 339084 4962.343949
0.125000 0.125124 8751.927522 94.386685 -708.694922 -14.516428 595.603236 401864 4962.343949
0.135000 0.135125 7924.142989 66.947579 -644.776881 -9.093462 -100.362554 468084 4962.343949
0.145000 0.145120 7010.898250 63.587048 -567.252712 57.573033 220.745707 539940 4962.343949
0.155000 0.155118 6315.569896 106.620652 -354.862229 -56.447262 455.075982 617324 4962.343949
0.165000 0.165105 5542.096783 63.119780 -635.743640 17.527364 -11.480088 697452 4962.343949
0.175000 0.175088 5145.513083 63.957806 -756.045624 -23.901306 54.789196 785846 4962.343949
0.185000 0.185089 4774.461434 66.963769 -469.781097 -3.665124 191.980973 879528 4962.343949
0.195000 0.195093 4423.110745 40.232776 -834.420328 17.673496 88.563166 976596 4962.343949
0.205000 0.205084 4021.457734 63.355616 -709.598144 -30.439560 113.636444 1077212 4962.343949
0.215000 0.215076 3727.431367 56.931601 -658.941826 5.296713 57.954267 1186908 4962.343949
0.225000 0.225076 3365.334841 42.465889 -549.929137 17.007482 209.415008 1299452 4962.343949
0.235000 0.235073 3114.718426 60.146608 -636.962160 -17.689930 266.639054 1417356 4962.343949
0.245000 0.245067 2882.568020 50.250909 -696.421776 -14.362964 231.724889 1539600 4962.343949
0.255000 0.255064 2703.191152 49.142861 -771.754035 -0.101154 144.223657 1669820 4962.343949
0.265000 0.265061 2475.140527 45.891263 -735.551437 -10.720774 220.493334 1801086 4962.343949
0.275000 0.275060 2338.752469 52.671804 -653.427271 -27.528288 250.094759 1942244 4962.343949
0.285000 0.285062 2166.502045 45.866465 -574.951266 12.583550 236.745151 2084796 4962.343949
0.295000 0.295057 1995.154162 43.155212 -685.396491 -0.093846 315.769092 2231868 4962.343949
