#Data file /home/DATA/sbrieden/Patchy_dr12_mocks/postrecon/original/Patchy-Mocks-DR12LOWZ-S-V5C-Portsmouth-mass_f0693b1850s10_0062.dat
#Random file /home/DATA/sbrieden/Patchy_dr12_mocks/postrecon/original/Patchy-Mocks-DR12LOWZ-S-V5C-Portsmouth-mass_f0693b1850s10_0062.ran
#Number of data elements used: 101173
#Number of random elements used: 2007200
#Effective number of data elements weighted by wcol: 101173.000000
#Effective number of random elements weighted by wcol: 2007200.000000
#Effective number of data elements weighted by wcol*wsys: 101173.000000
#Effective number of random elements weighted by wcol*wsys: 2007200.000000
#Effective redshift value from data 0.330161
#Effective redshift value from randoms 0.330402
#Size of the Box 2500.000000 Mpc/h
#Area of the survey used 2501.000000 deg^2
#Value of alpha: 0.050435
#Normalization using data file
#Normalization using density
#Normalization 1.876434
#Shot noise factor 1.000000
#Shot noise value 3666.534828
#Type of Computation: FFT
#Number of grid cells: 512
#Type of Mass Assigment: TSC
#Type of Yamamoto: GridCenter
#Number of Interlacing steps: 2
#Grid Correction: yes
#Value of Om=0.310000
#Quadrupole as L2
#Octopole as L3
#Hexadecapole as L2L2
#k-centerbin	 k-eff	 Monopole-Pshotnoise	 Dipole	 Quadrupole	 Octopole	 Hexadecapole	 number of modes	 Pshotnoise
0.005000 0.007385 40799.616349 -8120.796574 -25529.697728 -6792.257777 -11903.668553 250 3666.534828
0.015000 0.016012 58690.374186 -3033.294183 -41694.423359 -7336.688682 9266.707322 1852 3666.534828
0.025000 0.025646 46779.459576 3246.276961 -2573.476479 -12482.981212 -22896.599888 5020 3666.534828
0.035000 0.035469 39391.253124 -21.414405 -1498.795495 3445.967939 -17863.578284 9756 3666.534828
0.045000 0.045368 31248.408977 320.164270 -6571.548231 711.902101 8377.963574 16108 3666.534828
0.055000 0.055314 27576.691100 1086.094598 -3040.568863 -2026.360596 2698.612874 24064 3666.534828
0.065000 0.065258 23075.983395 266.648576 -2065.418682 -208.233782 -5488.142464 33396 3666.534828
0.075000 0.075209 19553.543445 482.950154 233.923169 459.219638 -1086.417486 44596 3666.534828
0.085000 0.085175 16063.141039 272.047939 -2442.107894 195.035320 368.818005 57124 3666.534828
0.095000 0.095157 13357.321338 477.625213 -1513.330218 -283.047382 1438.700052 71620 3666.534828
0.105000 0.105162 11127.673005 157.321561 -784.248155 -11.148609 502.845596 87552 3666.534828
0.115000 0.115148 10487.292195 98.058881 -1377.984657 -20.820766 -249.041626 104524 3666.534828
0.125000 0.125146 9450.803566 111.204310 -1088.381508 -5.260945 244.014296 124228 3666.534828
0.135000 0.135146 8163.122820 160.916026 -622.956632 -108.222396 52.285426 144204 3666.534828
0.145000 0.145132 7449.666680 151.096500 -723.924565 -55.447491 470.118312 166492 3666.534828
0.155000 0.155114 6545.517193 132.985639 -702.903684 21.002840 708.845659 189964 3666.534828
0.165000 0.165102 5562.746612 66.874189 -422.807243 -7.500475 126.431418 215640 3666.534828
0.175000 0.175105 5224.967066 85.368915 -726.029233 4.249463 -223.238898 242836 3666.534828
0.185000 0.185097 4732.536964 54.142370 -863.346898 -9.072236 -3.625217 270556 3666.534828
0.195000 0.195085 4344.137528 79.381162 -781.815776 -29.601764 -12.841793 301084 3666.534828
0.205000 0.205080 4035.891010 68.118198 -702.947604 5.813009 210.550426 332628 3666.534828
0.215000 0.215092 3720.606564 34.537875 -543.155232 -30.139265 472.757771 367216 3666.534828
0.225000 0.225099 3270.892226 83.598940 -870.729102 75.508209 347.905707 400444 3666.534828
0.235000 0.235081 3016.149981 31.676793 -666.965519 -51.100814 418.367040 436500 3666.534828
0.245000 0.245077 2867.563476 38.196829 -758.874752 -36.540004 25.515099 475900 3666.534828
0.255000 0.255082 2856.411683 37.514747 -705.155649 -0.309207 -83.190204 514900 3666.534828
0.265000 0.265074 2481.712324 64.600148 -739.768376 -14.132354 117.607913 555408 3666.534828
0.275000 0.275066 2219.389603 37.094498 -631.020537 20.289748 354.324150 598684 3666.534828
0.285000 0.285066 2132.308570 32.873398 -714.311822 -15.459408 151.097808 643228 3666.534828
0.295000 0.295058 1982.369826 49.014529 -844.861414 -0.008001 247.587653 688036 3666.534828
