#Data file /home/DATA/sbrieden/Patchy_dr12_mocks/postrecon/original/Patchy-Mocks-DR12CMASS-N-V6C-Portsmouth-mass_f0784b1850s10_0019.dat
#Random file /home/DATA/sbrieden/Patchy_dr12_mocks/postrecon/original/Patchy-Mocks-DR12CMASS-N-V6C-Portsmouth-mass_f0784b1850s10_0019.ran
#Number of data elements used: 589988
#Number of random elements used: 11780820
#Effective number of data elements weighted by wcol: 589988.000000
#Effective number of random elements weighted by wcol: 11780820.000000
#Effective number of data elements weighted by wcol*wsys: 589988.000000
#Effective number of random elements weighted by wcol*wsys: 11780820.000000
#Effective redshift value from data 0.597530
#Effective redshift value from randoms 0.597839
#Size of the Box 3700.000000 Mpc/h
#Area of the survey used 6851.000000 deg^2
#Value of alpha: 0.050142
#Normalization using data file
#Normalization using density
#Normalization 11.093655
#Shot noise factor 1.000000
#Shot noise value 4964.492690
#Type of Computation: FFT
#Number of grid cells: 512
#Type of Mass Assigment: TSC
#Type of Yamamoto: GridCenter
#Number of Interlacing steps: 2
#Grid Correction: yes
#Value of Om=0.310000
#Quadrupole as L2
#Octopole as L3
#Hexadecapole as L2L2
#k-centerbin	 k-eff	 Monopole-Pshotnoise	 Dipole	 Quadrupole	 Octopole	 Hexadecapole	 number of modes	 Pshotnoise
0.005000 0.007485 38230.254666 -2202.224478 10826.613075 2809.897798 509.374491 846 4964.492690
0.015000 0.016072 58628.874581 -2247.413640 -20366.943810 2982.789229 12538.622635 6012 4964.492690
0.025000 0.025646 48307.498108 1421.050034 760.725000 -217.996229 2431.209735 16172 4964.492690
0.035000 0.035469 35183.576652 886.159235 -5026.978295 -329.613885 2812.207038 31764 4964.492690
0.045000 0.045378 25628.254818 602.397551 -3407.261583 -1259.899444 2351.166703 52164 4964.492690
0.055000 0.055280 22525.955287 40.030720 -1242.703032 573.566070 -541.076271 77396 4964.492690
0.065000 0.065232 20955.158925 198.629767 -2349.684397 -184.898301 1203.543600 108936 4964.492690
0.075000 0.075229 17848.701916 248.260213 -1980.327381 -112.175977 1612.978794 144980 4964.492690
0.085000 0.085193 14714.863338 269.675636 -721.239823 27.335017 426.883834 184854 4964.492690
0.095000 0.095166 12154.656423 151.285538 -980.928109 -24.048666 448.295755 232260 4964.492690
0.105000 0.105155 10470.791212 88.464352 -1315.879229 -45.970178 97.903895 282884 4964.492690
0.115000 0.115131 9664.942883 97.229967 -1190.650262 -3.929280 -20.619918 339084 4964.492690
0.125000 0.125124 8696.900523 100.222779 -828.340854 -51.543940 -44.372837 401864 4964.492690
0.135000 0.135125 7688.243312 64.945920 -545.336201 8.207018 -356.107394 468084 4964.492690
0.145000 0.145120 7122.764146 105.467746 -524.941714 -39.241670 -279.929805 539940 4964.492690
0.155000 0.155118 6290.169149 56.278248 -717.988218 26.362665 -338.329013 617324 4964.492690
0.165000 0.165105 5534.124037 87.897227 -645.698195 10.060736 205.317893 697452 4964.492690
0.175000 0.175088 5107.694334 58.619569 -622.729484 -27.267350 -13.524200 785846 4964.492690
0.185000 0.185089 4791.688826 58.686857 -318.668338 -35.954451 109.550048 879528 4964.492690
0.195000 0.195093 4422.059674 61.690408 -578.831995 22.275249 214.710877 976596 4964.492690
0.205000 0.205084 4080.504930 55.883493 -534.668911 -17.145210 -20.291713 1077212 4964.492690
0.215000 0.215076 3646.383082 60.344268 -583.186739 17.267483 47.612765 1186908 4964.492690
0.225000 0.225076 3268.946271 52.583615 -568.790895 -28.643858 242.752887 1299452 4964.492690
0.235000 0.235073 3074.921506 42.367072 -668.715795 37.414296 250.703946 1417356 4964.492690
0.245000 0.245067 2879.148804 47.338990 -664.026923 -10.596168 247.931097 1539600 4964.492690
0.255000 0.255064 2670.230429 50.236455 -683.047134 -3.518483 330.833766 1669820 4964.492690
0.265000 0.265061 2476.759571 49.093395 -684.131659 -35.871765 255.759740 1801086 4964.492690
0.275000 0.275060 2330.664363 53.953138 -615.480776 0.859753 174.983981 1942244 4964.492690
0.285000 0.285062 2158.222932 38.364404 -695.334486 9.474580 127.696864 2084796 4964.492690
0.295000 0.295057 2026.635186 50.648142 -786.998214 -5.613554 230.622027 2231868 4964.492690
