#Data file /home/DATA/sbrieden/Patchy_dr12_mocks/postrecon/original/Patchy-Mocks-DR12CMASS-S-V6C-Portsmouth-mass_f0784b1850s10_0010.dat
#Random file /home/DATA/sbrieden/Patchy_dr12_mocks/postrecon/original/Patchy-Mocks-DR12CMASS-S-V6C-Portsmouth-mass_f0784b1850s10_0010.ran
#Number of data elements used: 214165
#Number of random elements used: 4282457
#Effective number of data elements weighted by wcol: 214165.000000
#Effective number of random elements weighted by wcol: 4282457.000000
#Effective number of data elements weighted by wcol*wsys: 214165.000000
#Effective number of random elements weighted by wcol*wsys: 4282457.000000
#Effective redshift value from data 0.597136
#Effective redshift value from randoms 0.596850
#Size of the Box 3700.000000 Mpc/h
#Area of the survey used 2525.000000 deg^2
#Value of alpha: 0.050293
#Normalization using data file
#Normalization using density
#Normalization 4.077794
#Shot noise factor 1.000000
#Shot noise value 4976.445706
#Type of Computation: FFT
#Number of grid cells: 512
#Type of Mass Assigment: TSC
#Type of Yamamoto: GridCenter
#Number of Interlacing steps: 2
#Grid Correction: yes
#Value of Om=0.310000
#Quadrupole as L2
#Octopole as L3
#Hexadecapole as L2L2
#k-centerbin	 k-eff	 Monopole-Pshotnoise	 Dipole	 Quadrupole	 Octopole	 Hexadecapole	 number of modes	 Pshotnoise
0.005000 0.007485 26598.687081 -7797.235253 -12587.180760 -680.713455 684.509061 846 4976.445706
0.015000 0.016072 53875.607393 -261.729202 -15957.954230 -3407.927527 -6591.136953 6012 4976.445706
0.025000 0.025646 42382.664423 641.923117 -22165.547662 -2048.975316 -6646.964148 16172 4976.445706
0.035000 0.035469 31007.112554 931.081199 -7044.318020 -2244.690023 -3025.266247 31764 4976.445706
0.045000 0.045378 25987.178930 191.224300 -6000.589670 856.958111 -3785.402344 52164 4976.445706
0.055000 0.055280 23357.275861 13.672000 -5468.914763 -21.366529 7738.783294 77396 4976.445706
0.065000 0.065232 20369.731175 395.455313 -2033.090972 -367.852233 4034.700577 108936 4976.445706
0.075000 0.075229 17426.957515 149.865683 -1982.094276 -250.467696 -458.079974 144980 4976.445706
0.085000 0.085193 14908.345223 249.269773 -788.329328 -54.053694 -728.273702 184854 4976.445706
0.095000 0.095166 11925.649402 181.772745 -408.407042 59.981291 621.661049 232260 4976.445706
0.105000 0.105155 10278.921478 153.074625 -532.150179 -9.069224 1026.042731 282884 4976.445706
0.115000 0.115131 9054.534692 25.138425 -1110.645564 100.382888 261.680850 339084 4976.445706
0.125000 0.125124 8621.937229 94.523987 -1150.700390 -163.847662 -200.220825 401864 4976.445706
0.135000 0.135125 7726.125494 76.856768 -484.597322 129.895798 283.879875 468084 4976.445706
0.145000 0.145120 6837.272287 117.095688 -1153.348742 -147.873251 61.337792 539940 4976.445706
0.155000 0.155118 6065.112604 78.124378 -833.609518 9.372046 -269.457033 617324 4976.445706
0.165000 0.165105 5284.244876 61.467038 -582.209504 15.231999 457.696971 697452 4976.445706
0.175000 0.175088 4889.383308 40.814063 -709.368300 41.422740 -173.148246 785846 4976.445706
0.185000 0.185089 4700.155393 69.399051 -858.853699 -95.252697 -50.041398 879528 4976.445706
0.195000 0.195093 4349.518060 62.049227 -889.815634 41.148199 252.231706 976596 4976.445706
0.205000 0.205084 3839.703241 50.342178 -746.068498 -26.649897 310.688124 1077212 4976.445706
0.215000 0.215076 3541.762766 64.694751 -425.049395 -30.073032 312.666239 1186908 4976.445706
0.225000 0.225076 3270.490984 41.279363 -524.083859 4.080630 212.584298 1299452 4976.445706
0.235000 0.235073 3001.855432 51.269901 -555.603703 14.723258 -10.683143 1417356 4976.445706
0.245000 0.245067 2873.406430 42.231942 -631.556440 -23.142616 -23.476971 1539600 4976.445706
0.255000 0.255064 2616.121965 62.038146 -499.346922 -16.838320 -33.741590 1669820 4976.445706
0.265000 0.265061 2411.515649 36.885947 -703.888167 27.421806 213.742573 1801086 4976.445706
0.275000 0.275060 2304.724518 50.192247 -804.810876 3.209314 234.136138 1942244 4976.445706
0.285000 0.285062 2109.442396 47.468075 -648.276908 -51.037016 218.222649 2084796 4976.445706
0.295000 0.295057 2022.380563 47.471984 -680.129684 10.184489 26.001920 2231868 4976.445706
