#Data file /home/DATA/sbrieden/Patchy_dr12_mocks/postrecon/original/Patchy-Mocks-DR12LOWZ-S-V5C-Portsmouth-mass_f0693b1850s10_0016.dat
#Random file /home/DATA/sbrieden/Patchy_dr12_mocks/postrecon/original/Patchy-Mocks-DR12LOWZ-S-V5C-Portsmouth-mass_f0693b1850s10_0016.ran
#Number of data elements used: 101789
#Number of random elements used: 2005219
#Effective number of data elements weighted by wcol: 101789.000000
#Effective number of random elements weighted by wcol: 2005219.000000
#Effective number of data elements weighted by wcol*wsys: 101789.000000
#Effective number of random elements weighted by wcol*wsys: 2005219.000000
#Effective redshift value from data 0.330386
#Effective redshift value from randoms 0.330068
#Size of the Box 2500.000000 Mpc/h
#Area of the survey used 2501.000000 deg^2
#Value of alpha: 0.050868
#Normalization using data file
#Normalization using density
#Normalization 1.888966
#Shot noise factor 1.000000
#Shot noise value 3668.868086
#Type of Computation: FFT
#Number of grid cells: 512
#Type of Mass Assigment: TSC
#Type of Yamamoto: GridCenter
#Number of Interlacing steps: 2
#Grid Correction: yes
#Value of Om=0.310000
#Quadrupole as L2
#Octopole as L3
#Hexadecapole as L2L2
#k-centerbin	 k-eff	 Monopole-Pshotnoise	 Dipole	 Quadrupole	 Octopole	 Hexadecapole	 number of modes	 Pshotnoise
0.005000 0.007385 6648.991055 -2835.292167 9011.542263 4321.849188 9501.415924 250 3668.868086
0.015000 0.016012 56776.314446 -4430.452038 -6298.406213 -6804.837592 -41975.400406 1852 3668.868086
0.025000 0.025646 46636.807971 2337.700622 -5263.486642 -6806.835606 -29964.686110 5020 3668.868086
0.035000 0.035469 35919.986542 311.550125 -7979.862646 120.755284 -11940.185473 9756 3668.868086
0.045000 0.045368 31299.587962 1052.080384 -2160.098835 -1752.068429 -7891.514692 16108 3668.868086
0.055000 0.055314 25845.590549 148.633053 198.675187 221.452226 -3391.212592 24064 3668.868086
0.065000 0.065258 24060.248431 686.165843 -130.469375 267.195068 1735.989311 33396 3668.868086
0.075000 0.075209 19890.352385 241.130351 -1281.796438 802.880368 4660.026115 44596 3668.868086
0.085000 0.085175 16334.976764 426.988785 -1901.579451 -279.941152 4748.442955 57124 3668.868086
0.095000 0.095157 13178.426529 418.899565 -1007.826122 165.798477 2595.684868 71620 3668.868086
0.105000 0.105162 11217.306729 156.649264 -1580.663680 -327.011198 -32.895809 87552 3668.868086
0.115000 0.115148 10457.269685 140.517312 -644.571450 -81.279426 328.372345 104524 3668.868086
0.125000 0.125146 9353.022068 69.792429 -865.698672 178.427152 68.093707 124228 3668.868086
0.135000 0.135146 8593.770165 145.169199 -1013.780945 -202.183343 552.742753 144204 3668.868086
0.145000 0.145132 7797.893199 121.745615 -610.917305 -123.243701 -357.801244 166492 3668.868086
0.155000 0.155114 6480.398529 187.158151 -169.780513 296.171505 567.309812 189964 3668.868086
0.165000 0.165102 5578.324458 81.714795 -898.135056 -82.339947 619.927987 215640 3668.868086
0.175000 0.175105 5291.769267 66.350065 -1078.376087 -114.257179 622.509964 242836 3668.868086
0.185000 0.185097 4780.768149 55.883921 -639.890101 -47.586293 462.096271 270556 3668.868086
0.195000 0.195085 4670.513106 30.311544 -843.194070 89.746381 -288.824713 301084 3668.868086
0.205000 0.205080 4151.974377 99.025806 -812.892531 -105.092772 167.836296 332628 3668.868086
0.215000 0.215092 3891.667080 59.439618 -619.870252 11.884345 -117.958096 367216 3668.868086
0.225000 0.225099 3396.077612 63.377549 -660.506098 -60.974080 -3.302828 400444 3668.868086
0.235000 0.235081 3193.230509 33.843355 -520.206022 102.420991 -156.683860 436500 3668.868086
0.245000 0.245077 3081.819662 32.776446 -781.586294 -15.952979 453.376647 475900 3668.868086
0.255000 0.255082 2731.397485 96.478261 -790.510783 -30.427735 194.147270 514900 3668.868086
0.265000 0.265074 2505.043272 18.247255 -754.524380 -15.289160 106.025536 555408 3668.868086
0.275000 0.275066 2324.958713 52.319028 -656.073062 -34.289195 121.300135 598684 3668.868086
0.285000 0.285066 2183.635992 28.732995 -728.967780 54.098494 413.055306 643228 3668.868086
0.295000 0.295058 2010.207777 63.737645 -948.802633 -12.537056 347.175259 688036 3668.868086
