#Data file /home/DATA/sbrieden/Patchy_dr12_mocks/postrecon/original/Patchy-Mocks-DR12CMASS-S-V6C-Portsmouth-mass_f0784b1850s10_0037.dat
#Random file /home/DATA/sbrieden/Patchy_dr12_mocks/postrecon/original/Patchy-Mocks-DR12CMASS-S-V6C-Portsmouth-mass_f0784b1850s10_0037.ran
#Number of data elements used: 212021
#Number of random elements used: 4287685
#Effective number of data elements weighted by wcol: 212021.000000
#Effective number of random elements weighted by wcol: 4287685.000000
#Effective number of data elements weighted by wcol*wsys: 212021.000000
#Effective number of random elements weighted by wcol*wsys: 4287685.000000
#Effective redshift value from data 0.597367
#Effective redshift value from randoms 0.596704
#Size of the Box 3700.000000 Mpc/h
#Area of the survey used 2525.000000 deg^2
#Value of alpha: 0.049680
#Normalization using data file
#Normalization using density
#Normalization 4.033060
#Shot noise factor 1.000000
#Shot noise value 4975.970118
#Type of Computation: FFT
#Number of grid cells: 512
#Type of Mass Assigment: TSC
#Type of Yamamoto: GridCenter
#Number of Interlacing steps: 2
#Grid Correction: yes
#Value of Om=0.310000
#Quadrupole as L2
#Octopole as L3
#Hexadecapole as L2L2
#k-centerbin	 k-eff	 Monopole-Pshotnoise	 Dipole	 Quadrupole	 Octopole	 Hexadecapole	 number of modes	 Pshotnoise
0.005000 0.007485 50081.965315 1166.115653 21265.424406 6685.036919 -5349.842161 846 4975.970118
0.015000 0.016072 54741.998025 933.454193 -2121.949626 -1223.296633 -30782.432486 6012 4975.970118
0.025000 0.025646 42326.209101 639.726537 165.085521 -2026.539947 -4236.816050 16172 4975.970118
0.035000 0.035469 34635.646676 536.675107 1780.210506 48.912546 -1212.468193 31764 4975.970118
0.045000 0.045378 28221.493340 355.431323 870.117526 767.750185 -6719.136725 52164 4975.970118
0.055000 0.055280 22841.377553 150.205318 -1614.480250 -70.876955 -3403.089771 77396 4975.970118
0.065000 0.065232 19813.042735 313.303834 -1739.499507 -314.098148 160.974324 108936 4975.970118
0.075000 0.075229 16977.391987 243.239259 -1260.119037 75.856212 814.285158 144980 4975.970118
0.085000 0.085193 14223.470488 223.571911 -1738.098942 -222.223392 -2750.371440 184854 4975.970118
0.095000 0.095166 11627.451481 192.076403 -1826.746652 50.663877 -53.003080 232260 4975.970118
0.105000 0.105155 9730.712022 116.304534 -1219.044403 -205.261166 -46.112536 282884 4975.970118
0.115000 0.115131 9399.198385 85.775738 -851.216938 23.574961 -655.683946 339084 4975.970118
0.125000 0.125124 8556.821198 49.163421 -957.778156 94.263087 363.247249 401864 4975.970118
0.135000 0.135125 7839.023971 92.668711 -1048.956895 -111.068839 -266.481587 468084 4975.970118
0.145000 0.145120 6784.971465 80.876928 -1313.287235 78.001238 -96.819454 539940 4975.970118
0.155000 0.155118 5874.874719 101.787982 -807.973763 -70.333084 -118.616229 617324 4975.970118
0.165000 0.165105 5460.326426 58.616121 -903.591587 -16.947191 83.391755 697452 4975.970118
0.175000 0.175088 4884.798755 50.294981 -691.114525 14.887774 90.892677 785846 4975.970118
0.185000 0.185089 4536.866556 49.807739 -457.822651 6.134069 77.273943 879528 4975.970118
0.195000 0.195093 4118.503356 77.376801 -554.113290 -61.196406 -90.436454 976596 4975.970118
0.205000 0.205084 3942.321735 48.453570 -730.959249 15.375760 302.139393 1077212 4975.970118
0.215000 0.215076 3600.792388 48.635909 -702.133591 14.950238 438.151448 1186908 4975.970118
0.225000 0.225076 3204.050843 47.092455 -568.632940 -3.436212 91.627268 1299452 4975.970118
0.235000 0.235073 2973.774588 66.195854 -731.746182 -32.856105 -111.191560 1417356 4975.970118
0.245000 0.245067 2710.448730 40.429528 -649.149665 13.986296 160.532514 1539600 4975.970118
0.255000 0.255064 2542.239676 38.122488 -670.224000 13.720451 434.182512 1669820 4975.970118
0.265000 0.265061 2437.614361 55.612668 -837.752400 -37.509254 456.291853 1801086 4975.970118
0.275000 0.275060 2134.321680 55.147472 -744.101630 -0.680387 310.990658 1942244 4975.970118
0.285000 0.285062 1991.325387 35.886501 -716.399567 27.843475 470.502788 2084796 4975.970118
0.295000 0.295057 1926.828499 47.526370 -929.313055 -22.729207 484.815406 2231868 4975.970118
