#Data file /home/DATA/sbrieden/Patchy_dr12_mocks/postrecon/original/Patchy-Mocks-DR12LOWZ-N-V5C-Portsmouth-mass_f0693b1850s10_0071.dat
#Random file /home/DATA/sbrieden/Patchy_dr12_mocks/postrecon/original/Patchy-Mocks-DR12LOWZ-N-V5C-Portsmouth-mass_f0693b1850s10_0071.ran
#Number of data elements used: 235672
#Number of random elements used: 4680664
#Effective number of data elements weighted by wcol: 235672.000000
#Effective number of random elements weighted by wcol: 4680664.000000
#Effective number of data elements weighted by wcol*wsys: 235672.000000
#Effective number of random elements weighted by wcol*wsys: 4680664.000000
#Effective redshift value from data 0.330192
#Effective redshift value from randoms 0.329826
#Size of the Box 2500.000000 Mpc/h
#Area of the survey used 5826.000000 deg^2
#Value of alpha: 0.050350
#Normalization using data file
#Normalization using density
#Normalization 4.366875
#Shot noise factor 1.000000
#Shot noise value 3651.272251
#Type of Computation: FFT
#Number of grid cells: 512
#Type of Mass Assigment: TSC
#Type of Yamamoto: GridCenter
#Number of Interlacing steps: 2
#Grid Correction: yes
#Value of Om=0.310000
#Quadrupole as L2
#Octopole as L3
#Hexadecapole as L2L2
#k-centerbin	 k-eff	 Monopole-Pshotnoise	 Dipole	 Quadrupole	 Octopole	 Hexadecapole	 number of modes	 Pshotnoise
0.005000 0.007385 44641.045328 -1346.959972 5693.334429 -11925.594324 -21182.534687 250 3651.272251
0.015000 0.016012 50904.042310 -1459.183843 -5276.323851 -5191.501647 -13318.336569 1852 3651.272251
0.025000 0.025646 49867.550829 -339.230353 -5399.440315 3528.890765 -3149.971431 5020 3651.272251
0.035000 0.035469 39808.096450 1680.336605 -6662.122903 -2515.124138 -3120.440133 9756 3651.272251
0.045000 0.045368 30927.912137 750.635095 -3426.219730 -945.319362 -4320.339403 16108 3651.272251
0.055000 0.055314 25786.775903 569.472858 447.330574 -146.246568 -1170.376624 24064 3651.272251
0.065000 0.065258 23012.228551 208.752198 -2721.868293 165.669055 -1659.825666 33396 3651.272251
0.075000 0.075209 19580.313190 469.131271 34.557359 51.977460 2295.276087 44596 3651.272251
0.085000 0.085175 16151.423286 432.915473 -1025.917640 -1.647998 -448.489934 57124 3651.272251
0.095000 0.095157 13430.913151 257.593258 -1041.018470 -12.454111 853.097950 71620 3651.272251
0.105000 0.105162 11612.121180 315.536622 -744.929847 -192.959232 362.459473 87552 3651.272251
0.115000 0.115148 10494.112064 102.374097 -1102.351331 116.507720 -24.625795 104524 3651.272251
0.125000 0.125146 9361.554684 87.913220 -675.191832 -141.969990 -619.817538 124228 3651.272251
0.135000 0.135146 8590.501671 174.041586 -445.515312 -131.182683 14.585120 144204 3651.272251
0.145000 0.145132 7403.454729 147.857627 -363.199909 167.005356 52.255067 166492 3651.272251
0.155000 0.155114 6567.781101 108.645903 -738.784116 -158.547128 193.294709 189964 3651.272251
0.165000 0.165102 5905.967607 86.030303 -444.364146 -26.323111 -400.730746 215640 3651.272251
0.175000 0.175105 5306.765874 76.966909 -506.127745 125.742776 -182.827544 242836 3651.272251
0.185000 0.185097 4752.126797 61.362747 -412.286625 -53.532505 -189.618108 270556 3651.272251
0.195000 0.195085 4407.743909 88.072755 -597.698062 -9.775993 182.017235 301084 3651.272251
0.205000 0.205080 4066.645093 28.486647 -672.650974 51.858013 170.383361 332628 3651.272251
0.215000 0.215092 3715.876107 74.376171 -971.690962 -35.705800 209.072183 367216 3651.272251
0.225000 0.225099 3383.248232 66.311898 -641.273915 -43.119864 9.630106 400444 3651.272251
0.235000 0.235081 3038.068098 56.340309 -503.035608 33.543434 184.205541 436500 3651.272251
0.245000 0.245077 2769.388147 42.610142 -675.694924 -37.207438 93.619779 475900 3651.272251
0.255000 0.255082 2670.780145 30.471375 -728.390976 21.781244 200.838162 514900 3651.272251
0.265000 0.265074 2500.651931 42.649010 -735.746694 -12.411441 222.362270 555408 3651.272251
0.275000 0.275066 2235.215028 45.400157 -747.751447 -8.422365 182.477102 598684 3651.272251
0.285000 0.285066 2124.940749 48.250818 -824.183207 14.604141 221.155316 643228 3651.272251
0.295000 0.295058 1991.440325 25.517153 -872.341221 -20.884813 325.623152 688036 3651.272251
