#Data file /home/DATA/sbrieden/Patchy_dr12_mocks/postrecon/original/Patchy-Mocks-DR12CMASS-N-V6C-Portsmouth-mass_f0784b1850s10_0054.dat
#Random file /home/DATA/sbrieden/Patchy_dr12_mocks/postrecon/original/Patchy-Mocks-DR12CMASS-N-V6C-Portsmouth-mass_f0784b1850s10_0054.ran
#Number of data elements used: 586030
#Number of random elements used: 11769069
#Effective number of data elements weighted by wcol: 586030.000000
#Effective number of random elements weighted by wcol: 11769069.000000
#Effective number of data elements weighted by wcol*wsys: 586030.000000
#Effective number of random elements weighted by wcol*wsys: 11769069.000000
#Effective redshift value from data 0.597920
#Effective redshift value from randoms 0.597784
#Size of the Box 3700.000000 Mpc/h
#Area of the survey used 6851.000000 deg^2
#Value of alpha: 0.049811
#Normalization using data file
#Normalization using density
#Normalization 11.001976
#Shot noise factor 1.000000
#Shot noise value 4968.331655
#Type of Computation: FFT
#Number of grid cells: 512
#Type of Mass Assigment: TSC
#Type of Yamamoto: GridCenter
#Number of Interlacing steps: 2
#Grid Correction: yes
#Value of Om=0.310000
#Quadrupole as L2
#Octopole as L3
#Hexadecapole as L2L2
#k-centerbin	 k-eff	 Monopole-Pshotnoise	 Dipole	 Quadrupole	 Octopole	 Hexadecapole	 number of modes	 Pshotnoise
0.005000 0.007485 33043.924328 -3314.376493 -7876.018398 -597.542705 2664.953377 846 4968.331655
0.015000 0.016072 47978.872136 60.184797 -4732.906818 -1141.222570 7006.046105 6012 4968.331655
0.025000 0.025646 42771.321167 407.255483 -1108.597809 604.047061 -0.904106 16172 4968.331655
0.035000 0.035469 33911.741316 455.748619 -3564.004426 84.902415 935.289641 31764 4968.331655
0.045000 0.045378 27430.324180 415.000538 -4019.386029 -568.647469 -1023.659266 52164 4968.331655
0.055000 0.055280 23741.328202 242.121238 -2671.575610 140.427554 559.181322 77396 4968.331655
0.065000 0.065232 20883.598711 258.387360 -2918.048530 -155.540012 1402.475037 108936 4968.331655
0.075000 0.075229 17898.451008 101.453217 -2899.205744 71.694930 1076.856587 144980 4968.331655
0.085000 0.085193 15084.750860 274.557965 -1829.145547 -190.135185 346.529525 184854 4968.331655
0.095000 0.095166 12455.769422 249.760505 -1338.813394 -90.275343 -469.499686 232260 4968.331655
0.105000 0.105155 10289.782074 107.904571 -1013.239020 -3.392735 404.593870 282884 4968.331655
0.115000 0.115131 9386.396405 40.370635 -568.137844 52.991620 631.455612 339084 4968.331655
0.125000 0.125124 8849.865577 107.058439 -1208.555027 -81.672984 210.506884 401864 4968.331655
0.135000 0.135125 8090.116782 77.927034 -1314.789737 -9.693541 -400.313661 468084 4968.331655
0.145000 0.145120 6980.627303 122.137517 -750.493931 -48.262437 -19.619284 539940 4968.331655
0.155000 0.155118 6096.467840 87.442084 -745.060479 -47.121150 83.828679 617324 4968.331655
0.165000 0.165105 5469.824590 44.103331 -576.920238 69.245478 252.489395 697452 4968.331655
0.175000 0.175088 5154.998101 61.963616 -461.177993 -50.932603 -175.341822 785846 4968.331655
0.185000 0.185089 4808.647217 55.827501 -610.566782 -8.484976 87.285369 879528 4968.331655
0.195000 0.195093 4491.671886 58.992363 -550.325202 29.841106 102.117085 976596 4968.331655
0.205000 0.205084 4009.484269 62.086896 -511.020654 -18.599507 458.884968 1077212 4968.331655
0.215000 0.215076 3644.684153 57.648264 -691.088166 -14.728176 -13.492447 1186908 4968.331655
0.225000 0.225076 3285.891159 55.616891 -588.625728 -20.925846 24.012466 1299452 4968.331655
0.235000 0.235073 3105.800938 43.965301 -488.868204 7.160156 121.541447 1417356 4968.331655
0.245000 0.245067 2845.925231 50.760098 -642.072302 23.457356 251.024325 1539600 4968.331655
0.255000 0.255064 2627.372498 44.730059 -727.996688 -26.360822 137.748070 1669820 4968.331655
0.265000 0.265061 2484.760234 52.592212 -728.089795 1.020575 88.770086 1801086 4968.331655
0.275000 0.275060 2323.560386 43.831797 -700.458230 -5.211080 284.469164 1942244 4968.331655
0.285000 0.285062 2125.198798 47.875701 -721.360036 7.349063 237.400041 2084796 4968.331655
0.295000 0.295057 2063.064732 43.734602 -820.115176 -16.886549 283.627842 2231868 4968.331655
