#Data file /home/DATA/sbrieden/Patchy_dr12_mocks/postrecon/original/Patchy-Mocks-DR12LOWZ-N-V5C-Portsmouth-mass_f0693b1850s10_0012.dat
#Random file /home/DATA/sbrieden/Patchy_dr12_mocks/postrecon/original/Patchy-Mocks-DR12LOWZ-N-V5C-Portsmouth-mass_f0693b1850s10_0012.ran
#Number of data elements used: 233764
#Number of random elements used: 4678595
#Effective number of data elements weighted by wcol: 233764.000000
#Effective number of random elements weighted by wcol: 4678595.000000
#Effective number of data elements weighted by wcol*wsys: 233764.000000
#Effective number of random elements weighted by wcol*wsys: 4678595.000000
#Effective redshift value from data 0.330730
#Effective redshift value from randoms 0.329679
#Size of the Box 2500.000000 Mpc/h
#Area of the survey used 5826.000000 deg^2
#Value of alpha: 0.050139
#Normalization using data file
#Normalization using density
#Normalization 4.341844
#Shot noise factor 1.000000
#Shot noise value 3669.170733
#Type of Computation: FFT
#Number of grid cells: 512
#Type of Mass Assigment: TSC
#Type of Yamamoto: GridCenter
#Number of Interlacing steps: 2
#Grid Correction: yes
#Value of Om=0.310000
#Quadrupole as L2
#Octopole as L3
#Hexadecapole as L2L2
#k-centerbin	 k-eff	 Monopole-Pshotnoise	 Dipole	 Quadrupole	 Octopole	 Hexadecapole	 number of modes	 Pshotnoise
0.005000 0.007385 61116.727295 358.839112 -25690.466490 -8020.124001 -18706.404118 250 3669.170733
0.015000 0.016012 57833.956840 -1090.608048 -12995.926218 -2972.752089 5647.645645 1852 3669.170733
0.025000 0.025646 50223.374514 2342.333617 -6552.445363 -5563.793414 412.200847 5020 3669.170733
0.035000 0.035469 39761.469176 1126.427386 -5988.991874 -60.807329 -4534.350931 9756 3669.170733
0.045000 0.045368 30125.549263 1188.955018 1938.552357 524.894939 4524.887665 16108 3669.170733
0.055000 0.055314 25309.517420 81.234317 -1198.957241 1003.247358 4104.440677 24064 3669.170733
0.065000 0.065258 22382.960179 544.292208 -288.880843 -224.139167 3750.195177 33396 3669.170733
0.075000 0.075209 19228.902994 261.670111 1203.563876 -132.484208 55.500801 44596 3669.170733
0.085000 0.085175 16707.502091 392.521268 -880.720996 57.565834 65.030744 57124 3669.170733
0.095000 0.095157 13345.695282 475.550175 -1087.329389 78.458147 1495.435699 71620 3669.170733
0.105000 0.105162 10836.244472 139.164651 -1670.820427 -185.249140 -540.203933 87552 3669.170733
0.115000 0.115148 10441.699611 57.972506 -1256.616050 157.902017 -247.813468 104524 3669.170733
0.125000 0.125146 9301.464354 192.361277 -577.610413 -250.159908 282.588121 124228 3669.170733
0.135000 0.135146 8357.499409 110.840831 -659.341384 91.184741 65.799804 144204 3669.170733
0.145000 0.145132 7321.336317 132.899975 -735.131227 20.298831 -13.744431 166492 3669.170733
0.155000 0.155114 6523.384610 68.248438 -913.962873 3.086602 451.148940 189964 3669.170733
0.165000 0.165102 5883.939911 113.091618 -856.039524 -63.843100 45.413264 215640 3669.170733
0.175000 0.175105 5165.492534 74.478400 -683.799824 -16.141308 62.134052 242836 3669.170733
0.185000 0.185097 4850.605577 75.821367 -586.698535 -5.608148 51.673242 270556 3669.170733
0.195000 0.195085 4464.556944 66.218983 -645.770865 8.770589 158.484086 301084 3669.170733
0.205000 0.205080 4100.540439 60.960834 -562.864160 -35.408735 -139.136590 332628 3669.170733
0.215000 0.215092 3604.934289 75.603995 -639.444741 40.214686 326.092443 367216 3669.170733
0.225000 0.225099 3261.252016 47.029927 -730.208361 -40.417783 95.429338 400444 3669.170733
0.235000 0.235081 3095.194207 35.696942 -884.202617 13.745439 272.589238 436500 3669.170733
0.245000 0.245077 2873.190581 48.501369 -845.400133 -0.151023 153.043118 475900 3669.170733
0.255000 0.255082 2665.821959 45.187292 -861.361784 -14.705344 108.378160 514900 3669.170733
0.265000 0.265074 2431.627306 63.045437 -721.129114 -77.071155 215.988108 555408 3669.170733
0.275000 0.275066 2258.475902 22.340995 -773.824133 57.918262 152.501448 598684 3669.170733
0.285000 0.285066 2134.426048 38.973838 -778.581989 -21.940832 222.076084 643228 3669.170733
0.295000 0.295058 1951.807505 31.210188 -736.160720 20.992716 363.886139 688036 3669.170733
