#Data file /home/DATA/sbrieden/Patchy_dr12_mocks/postrecon/original/Patchy-Mocks-DR12LOWZ-S-V5C-Portsmouth-mass_f0693b1850s10_0078.dat
#Random file /home/DATA/sbrieden/Patchy_dr12_mocks/postrecon/original/Patchy-Mocks-DR12LOWZ-S-V5C-Portsmouth-mass_f0693b1850s10_0078.ran
#Number of data elements used: 100454
#Number of random elements used: 2002743
#Effective number of data elements weighted by wcol: 100454.000000
#Effective number of random elements weighted by wcol: 2002743.000000
#Effective number of data elements weighted by wcol*wsys: 100454.000000
#Effective number of random elements weighted by wcol*wsys: 2002743.000000
#Effective redshift value from data 0.330148
#Effective redshift value from randoms 0.330103
#Size of the Box 2500.000000 Mpc/h
#Area of the survey used 2501.000000 deg^2
#Value of alpha: 0.050181
#Normalization using data file
#Normalization using density
#Normalization 1.862667
#Shot noise factor 1.000000
#Shot noise value 3659.282393
#Type of Computation: FFT
#Number of grid cells: 512
#Type of Mass Assigment: TSC
#Type of Yamamoto: GridCenter
#Number of Interlacing steps: 2
#Grid Correction: yes
#Value of Om=0.310000
#Quadrupole as L2
#Octopole as L3
#Hexadecapole as L2L2
#k-centerbin	 k-eff	 Monopole-Pshotnoise	 Dipole	 Quadrupole	 Octopole	 Hexadecapole	 number of modes	 Pshotnoise
0.005000 0.007385 69891.083473 -12384.213427 -27238.269982 -31135.509120 -42367.322715 250 3659.282393
0.015000 0.016012 55539.272305 1578.923980 -27459.379455 -5533.933666 -30291.169234 1852 3659.282393
0.025000 0.025646 48078.489683 1172.863852 -12182.073606 -2132.426265 10832.338321 5020 3659.282393
0.035000 0.035469 41933.759902 1289.067163 1228.486713 -1584.287415 4638.171433 9756 3659.282393
0.045000 0.045368 31698.025222 1232.756363 -1570.370457 919.183172 1178.934227 16108 3659.282393
0.055000 0.055314 22920.197840 484.801756 -169.359471 911.808106 9382.256100 24064 3659.282393
0.065000 0.065258 20186.257162 93.074116 -3247.721032 -1297.390199 1050.402327 33396 3659.282393
0.075000 0.075209 20926.394935 37.629709 -314.801704 550.470283 -1513.685417 44596 3659.282393
0.085000 0.085175 16828.457249 725.692419 2587.824608 -316.942649 3200.248546 57124 3659.282393
0.095000 0.095157 13348.171742 375.880641 201.181289 163.332817 -1304.031872 71620 3659.282393
0.105000 0.105162 10706.745264 179.271883 -727.264242 121.796094 -585.837076 87552 3659.282393
0.115000 0.115148 9666.295357 176.465411 169.111345 -28.225905 1252.831819 104524 3659.282393
0.125000 0.125146 9319.527068 -16.947449 -283.983326 108.750039 253.697505 124228 3659.282393
0.135000 0.135146 8525.673816 169.710890 -1345.979991 -176.879658 37.299333 144204 3659.282393
0.145000 0.145132 7484.170506 60.827272 -939.451067 197.968455 446.079013 166492 3659.282393
0.155000 0.155114 6806.222979 197.736583 -949.476752 -115.015804 414.076779 189964 3659.282393
0.165000 0.165102 5775.497004 76.079406 -945.153600 -21.835133 266.995493 215640 3659.282393
0.175000 0.175105 5203.727009 66.245907 -865.498360 -39.896045 430.095483 242836 3659.282393
0.185000 0.185097 5158.278850 65.129203 -646.649000 -5.659432 447.133336 270556 3659.282393
0.195000 0.195085 4650.752425 54.869389 -788.376492 31.112162 64.111417 301084 3659.282393
0.205000 0.205080 4043.820706 122.352877 -699.512834 -27.747628 380.125265 332628 3659.282393
0.215000 0.215092 3530.888626 41.980299 -646.609694 17.733216 181.311892 367216 3659.282393
0.225000 0.225099 3347.461578 61.096112 -681.802008 -2.378351 408.866338 400444 3659.282393
0.235000 0.235081 2980.727824 42.539335 -616.424049 3.870998 525.743740 436500 3659.282393
0.245000 0.245077 2850.242852 30.638204 -828.307643 3.069702 213.000687 475900 3659.282393
0.255000 0.255082 2702.248968 45.905763 -837.740579 -24.027042 -31.719919 514900 3659.282393
0.265000 0.265074 2553.023886 33.579340 -828.498616 -16.445861 -91.410614 555408 3659.282393
0.275000 0.275066 2284.935736 71.923081 -762.048360 -25.420287 165.167103 598684 3659.282393
0.285000 0.285066 2016.807246 22.037446 -951.173800 54.816768 185.054207 643228 3659.282393
0.295000 0.295058 1885.250489 54.973904 -805.022093 -40.922602 573.083094 688036 3659.282393
