#Data file /home/DATA/sbrieden/Patchy_dr12_mocks/postrecon/original/Patchy-Mocks-DR12CMASS-S-V6C-Portsmouth-mass_f0784b1850s10_0081.dat
#Random file /home/DATA/sbrieden/Patchy_dr12_mocks/postrecon/original/Patchy-Mocks-DR12CMASS-S-V6C-Portsmouth-mass_f0784b1850s10_0081.ran
#Number of data elements used: 216235
#Number of random elements used: 4279969
#Effective number of data elements weighted by wcol: 216235.000000
#Effective number of random elements weighted by wcol: 4279969.000000
#Effective number of data elements weighted by wcol*wsys: 216235.000000
#Effective number of random elements weighted by wcol*wsys: 4279969.000000
#Effective redshift value from data 0.596886
#Effective redshift value from randoms 0.597167
#Size of the Box 3700.000000 Mpc/h
#Area of the survey used 2525.000000 deg^2
#Value of alpha: 0.050492
#Normalization using data file
#Normalization using density
#Normalization 4.102769
#Shot noise factor 1.000000
#Shot noise value 4936.418661
#Type of Computation: FFT
#Number of grid cells: 512
#Type of Mass Assigment: TSC
#Type of Yamamoto: GridCenter
#Number of Interlacing steps: 2
#Grid Correction: yes
#Value of Om=0.310000
#Quadrupole as L2
#Octopole as L3
#Hexadecapole as L2L2
#k-centerbin	 k-eff	 Monopole-Pshotnoise	 Dipole	 Quadrupole	 Octopole	 Hexadecapole	 number of modes	 Pshotnoise
0.005000 0.007485 45577.783419 -2344.773259 -32426.029151 -7962.211447 -4257.887439 846 4936.418661
0.015000 0.016072 46750.640430 -340.243279 -19943.504818 -1159.564803 11889.432156 6012 4936.418661
0.025000 0.025646 41134.509980 433.315446 -4613.457743 -1926.234862 7189.261722 16172 4936.418661
0.035000 0.035469 35302.289854 685.207662 -109.062541 -692.250609 -6632.290955 31764 4936.418661
0.045000 0.045378 27239.591809 547.211611 -896.141874 162.091843 -1875.892664 52164 4936.418661
0.055000 0.055280 23305.910073 82.166104 881.501025 320.695375 -337.117206 77396 4936.418661
0.065000 0.065232 19968.384521 223.675892 -2358.319075 192.955292 2440.093443 108936 4936.418661
0.075000 0.075229 17452.097937 314.967580 -2253.791040 -300.208666 1813.011268 144980 4936.418661
0.085000 0.085193 14147.228580 231.413682 -659.574323 40.049720 936.649570 184854 4936.418661
0.095000 0.095166 11875.660566 77.157468 -934.524599 30.870031 -106.207640 232260 4936.418661
0.105000 0.105155 10579.570671 151.838065 -599.021869 -74.191793 1560.350096 282884 4936.418661
0.115000 0.115131 9369.480436 57.645214 -1118.725935 39.651742 -832.007885 339084 4936.418661
0.125000 0.125124 8671.139737 108.578845 -1418.826146 -32.690959 259.550973 401864 4936.418661
0.135000 0.135125 7592.022691 51.288972 -894.377587 -9.858076 -1071.560992 468084 4936.418661
0.145000 0.145120 7013.552584 131.857346 -995.985825 -45.086136 188.421461 539940 4936.418661
0.155000 0.155118 6287.606002 42.848389 -1078.218027 -18.629691 -277.529372 617324 4936.418661
0.165000 0.165105 5527.213852 91.379065 -1218.993802 39.473737 140.451626 697452 4936.418661
0.175000 0.175088 4925.028915 60.023298 -1078.737178 -71.357794 -214.794662 785846 4936.418661
0.185000 0.185089 4633.914376 57.548088 -1023.091441 16.807557 -1.045160 879528 4936.418661
0.195000 0.195093 4178.475278 61.481612 -774.401419 -18.732260 373.196104 976596 4936.418661
0.205000 0.205084 3907.607159 49.967366 -738.427816 -31.868273 118.809479 1077212 4936.418661
0.215000 0.215076 3567.658371 51.985835 -721.563153 8.756538 37.891592 1186908 4936.418661
0.225000 0.225076 3170.406920 55.702687 -664.811196 -1.254068 233.344039 1299452 4936.418661
0.235000 0.235073 2992.895523 48.117869 -690.081998 -22.463863 81.752819 1417356 4936.418661
0.245000 0.245067 2840.450671 40.778358 -787.974975 8.169707 202.204088 1539600 4936.418661
0.255000 0.255064 2589.458618 54.423224 -802.423180 -1.760462 234.037086 1669820 4936.418661
0.265000 0.265061 2471.236639 45.837414 -785.955020 -26.410455 191.149215 1801086 4936.418661
0.275000 0.275060 2179.780635 54.721212 -836.594843 -7.821343 199.313589 1942244 4936.418661
0.285000 0.285062 2137.468008 45.462169 -834.449834 -28.564116 322.155303 2084796 4936.418661
0.295000 0.295057 1993.721589 32.086710 -715.626217 33.210579 337.882929 2231868 4936.418661
