#Data file /home/DATA/sbrieden/Patchy_dr12_mocks/postrecon/original/Patchy-Mocks-DR12LOWZ-N-V5C-Portsmouth-mass_f0693b1850s10_0055.dat
#Random file /home/DATA/sbrieden/Patchy_dr12_mocks/postrecon/original/Patchy-Mocks-DR12LOWZ-N-V5C-Portsmouth-mass_f0693b1850s10_0055.ran
#Number of data elements used: 233815
#Number of random elements used: 4683118
#Effective number of data elements weighted by wcol: 233815.000000
#Effective number of random elements weighted by wcol: 4683118.000000
#Effective number of data elements weighted by wcol*wsys: 233815.000000
#Effective number of random elements weighted by wcol*wsys: 4683118.000000
#Effective redshift value from data 0.330361
#Effective redshift value from randoms 0.329963
#Size of the Box 2500.000000 Mpc/h
#Area of the survey used 5826.000000 deg^2
#Value of alpha: 0.050050
#Normalization using data file
#Normalization using density
#Normalization 4.340159
#Shot noise factor 1.000000
#Shot noise value 3668.089984
#Type of Computation: FFT
#Number of grid cells: 512
#Type of Mass Assigment: TSC
#Type of Yamamoto: GridCenter
#Number of Interlacing steps: 2
#Grid Correction: yes
#Value of Om=0.310000
#Quadrupole as L2
#Octopole as L3
#Hexadecapole as L2L2
#k-centerbin	 k-eff	 Monopole-Pshotnoise	 Dipole	 Quadrupole	 Octopole	 Hexadecapole	 number of modes	 Pshotnoise
0.005000 0.007385 52605.289728 -7510.952643 5871.486519 -9937.719625 -37096.673478 250 3668.089984
0.015000 0.016012 50365.536834 1144.209990 10744.971282 10174.740407 24705.095369 1852 3668.089984
0.025000 0.025646 48563.304021 1518.501262 -2309.113165 -4768.913695 -17269.329679 5020 3668.089984
0.035000 0.035469 37557.330462 702.923361 523.500120 1306.746364 -9609.796245 9756 3668.089984
0.045000 0.045368 30247.374074 738.701116 -8135.233765 -416.660833 -1864.609975 16108 3668.089984
0.055000 0.055314 24867.499964 620.667051 392.273986 -1217.766275 -721.219375 24064 3668.089984
0.065000 0.065258 21919.890920 214.493117 -2537.843833 75.184117 -4836.594471 33396 3668.089984
0.075000 0.075209 19802.444005 301.322757 -1608.614131 104.782391 -2333.231066 44596 3668.089984
0.085000 0.085175 16643.356353 470.684331 -1301.848666 -319.819727 589.293992 57124 3668.089984
0.095000 0.095157 13562.539537 247.184311 -1648.907904 193.627147 510.771214 71620 3668.089984
0.105000 0.105162 11190.105967 252.238869 -1485.853367 -272.475125 -974.869530 87552 3668.089984
0.115000 0.115148 10152.846141 151.611923 -1218.761032 -114.445189 -1178.807229 104524 3668.089984
0.125000 0.125146 9465.745646 39.093935 -1208.678614 28.585629 -18.783264 124228 3668.089984
0.135000 0.135146 8779.886167 158.979155 -1020.656166 59.922536 -401.677829 144204 3668.089984
0.145000 0.145132 7446.243872 160.679169 -957.208170 -167.239913 60.773255 166492 3668.089984
0.155000 0.155114 6528.998833 133.704342 -789.999740 1.241256 -35.216716 189964 3668.089984
0.165000 0.165102 5779.249136 105.513521 -413.038642 55.180508 201.346690 215640 3668.089984
0.175000 0.175105 5235.316992 59.608921 -757.698054 -56.261022 156.274987 242836 3668.089984
0.185000 0.185097 5020.002261 41.454064 -832.227227 6.679805 214.483830 270556 3668.089984
0.195000 0.195085 4614.791690 77.264577 -770.261907 -29.657376 -277.559228 301084 3668.089984
0.205000 0.205080 4199.711596 76.896277 -911.149981 24.306814 131.025513 332628 3668.089984
0.215000 0.215092 3661.261879 73.186500 -680.501948 -50.987705 -53.262166 367216 3668.089984
0.225000 0.225099 3220.960591 66.143992 -715.310595 -0.642878 118.552922 400444 3668.089984
0.235000 0.235081 3024.297631 37.076583 -641.781077 -12.436058 62.746031 436500 3668.089984
0.245000 0.245077 2948.417512 37.408200 -728.651082 2.740569 255.573743 475900 3668.089984
0.255000 0.255082 2660.083286 45.548040 -632.178000 -21.002086 114.954035 514900 3668.089984
0.265000 0.265074 2513.842917 46.020673 -702.987662 -19.314057 102.956568 555408 3668.089984
0.275000 0.275066 2302.835383 57.128762 -646.396701 -23.330956 49.926532 598684 3668.089984
0.285000 0.285066 2147.345814 25.724236 -587.055131 38.530930 195.902570 643228 3668.089984
0.295000 0.295058 1985.323203 35.311225 -716.832663 -3.487450 219.982135 688036 3668.089984
