#Data file /home/DATA/sbrieden/Patchy_dr12_mocks/postrecon/original/Patchy-Mocks-DR12CMASS-N-V6C-Portsmouth-mass_f0784b1850s10_0055.dat
#Random file /home/DATA/sbrieden/Patchy_dr12_mocks/postrecon/original/Patchy-Mocks-DR12CMASS-N-V6C-Portsmouth-mass_f0784b1850s10_0055.ran
#Number of data elements used: 588011
#Number of random elements used: 11776017
#Effective number of data elements weighted by wcol: 588011.000000
#Effective number of random elements weighted by wcol: 11776017.000000
#Effective number of data elements weighted by wcol*wsys: 588011.000000
#Effective number of random elements weighted by wcol*wsys: 11776017.000000
#Effective redshift value from data 0.597792
#Effective redshift value from randoms 0.597839
#Size of the Box 3700.000000 Mpc/h
#Area of the survey used 6851.000000 deg^2
#Value of alpha: 0.049955
#Normalization using data file
#Normalization using density
#Normalization 11.045810
#Shot noise factor 1.000000
#Shot noise value 4962.319498
#Type of Computation: FFT
#Number of grid cells: 512
#Type of Mass Assigment: TSC
#Type of Yamamoto: GridCenter
#Number of Interlacing steps: 2
#Grid Correction: yes
#Value of Om=0.310000
#Quadrupole as L2
#Octopole as L3
#Hexadecapole as L2L2
#k-centerbin	 k-eff	 Monopole-Pshotnoise	 Dipole	 Quadrupole	 Octopole	 Hexadecapole	 number of modes	 Pshotnoise
0.005000 0.007485 35644.282929 -1415.315561 -10883.144529 649.077922 3561.121394 846 4962.319498
0.015000 0.016072 47605.433501 349.621904 -8950.113292 -1418.225227 11886.746193 6012 4962.319498
0.025000 0.025646 40389.321435 616.729598 5869.499543 1774.749172 13669.495996 16172 4962.319498
0.035000 0.035469 33508.405771 269.144560 -2622.074884 -516.833507 609.609243 31764 4962.319498
0.045000 0.045378 28169.311474 223.368689 -5160.128685 282.274683 -1267.480579 52164 4962.319498
0.055000 0.055280 23857.095018 468.212162 -1525.314469 -771.187407 -2046.601469 77396 4962.319498
0.065000 0.065232 20530.577780 148.284827 -2606.529548 146.398256 -1705.566525 108936 4962.319498
0.075000 0.075229 17668.444734 172.375486 -1822.250310 -24.196641 -750.601653 144980 4962.319498
0.085000 0.085193 15397.361685 233.385618 -1554.028799 -92.080052 -855.631847 184854 4962.319498
0.095000 0.095166 12242.593269 224.278823 -1174.283269 -89.147362 -328.237715 232260 4962.319498
0.105000 0.105155 10522.645190 103.285838 -1455.294123 91.175871 -138.796690 282884 4962.319498
0.115000 0.115131 9500.693077 96.254312 -918.490390 -92.471039 693.528552 339084 4962.319498
0.125000 0.125124 8740.650302 57.821234 -593.964259 23.676345 216.407536 401864 4962.319498
0.135000 0.135125 8024.445334 74.967253 -859.836259 -33.682279 -41.186862 468084 4962.319498
0.145000 0.145120 7155.133176 122.983941 -700.059964 -71.343730 114.073591 539940 4962.319498
0.155000 0.155118 6308.445671 83.303880 -650.955544 26.574798 164.916027 617324 4962.319498
0.165000 0.165105 5495.753726 83.789467 -613.220638 -30.446357 -165.820063 697452 4962.319498
0.175000 0.175088 5038.229130 50.074179 -377.856579 -1.967023 359.765523 785846 4962.319498
0.185000 0.185089 4789.315312 42.883931 -681.306598 43.873393 261.205381 879528 4962.319498
0.195000 0.195093 4546.518288 67.446244 -672.958501 -60.301665 280.665124 976596 4962.319498
0.205000 0.205084 4030.064583 67.962465 -637.274767 25.274466 345.848872 1077212 4962.319498
0.215000 0.215076 3669.905653 53.282133 -526.822887 -23.144690 301.969778 1186908 4962.319498
0.225000 0.225076 3323.401358 54.602281 -498.533537 -12.372187 64.728107 1299452 4962.319498
0.235000 0.235073 3109.588354 50.477922 -585.575891 22.756342 219.276517 1417356 4962.319498
0.245000 0.245067 2871.073010 39.395143 -635.211439 -3.286103 280.869129 1539600 4962.319498
0.255000 0.255064 2704.745532 52.334299 -672.442982 -7.674553 86.535207 1669820 4962.319498
0.265000 0.265061 2475.285633 45.005761 -719.795982 6.017258 207.668284 1801086 4962.319498
0.275000 0.275060 2321.778362 48.016693 -728.799414 -18.732816 191.418785 1942244 4962.319498
0.285000 0.285062 2126.763400 50.811463 -658.016139 -4.821427 174.476775 2084796 4962.319498
0.295000 0.295057 1997.739626 38.082114 -558.574565 -2.651621 201.386152 2231868 4962.319498
