#Data file /home/DATA/sbrieden/Patchy_dr12_mocks/postrecon/original/Patchy-Mocks-DR12CMASS-N-V6C-Portsmouth-mass_f0784b1850s10_0082.dat
#Random file /home/DATA/sbrieden/Patchy_dr12_mocks/postrecon/original/Patchy-Mocks-DR12CMASS-N-V6C-Portsmouth-mass_f0784b1850s10_0082.ran
#Number of data elements used: 586748
#Number of random elements used: 11776166
#Effective number of data elements weighted by wcol: 586748.000000
#Effective number of random elements weighted by wcol: 11776166.000000
#Effective number of data elements weighted by wcol*wsys: 586748.000000
#Effective number of random elements weighted by wcol*wsys: 11776166.000000
#Effective redshift value from data 0.597782
#Effective redshift value from randoms 0.597719
#Size of the Box 3700.000000 Mpc/h
#Area of the survey used 6851.000000 deg^2
#Value of alpha: 0.049963
#Normalization using data file
#Normalization using density
#Normalization 11.037866
#Shot noise factor 1.000000
#Shot noise value 4974.572324
#Type of Computation: FFT
#Number of grid cells: 512
#Type of Mass Assigment: TSC
#Type of Yamamoto: GridCenter
#Number of Interlacing steps: 2
#Grid Correction: yes
#Value of Om=0.310000
#Quadrupole as L2
#Octopole as L3
#Hexadecapole as L2L2
#k-centerbin	 k-eff	 Monopole-Pshotnoise	 Dipole	 Quadrupole	 Octopole	 Hexadecapole	 number of modes	 Pshotnoise
0.005000 0.007485 37751.151878 -266.106510 5296.242372 -5089.471929 -22254.081005 846 4974.572324
0.015000 0.016072 46696.385656 -68.567092 -7519.211330 -3293.150242 -10390.136118 6012 4974.572324
0.025000 0.025646 40614.659102 452.089228 2563.475690 1176.112854 2914.544363 16172 4974.572324
0.035000 0.035469 35136.256256 582.562945 -2908.201024 404.994240 982.422794 31764 4974.572324
0.045000 0.045378 26353.738531 543.140385 453.504888 -611.356807 3184.674679 52164 4974.572324
0.055000 0.055280 22977.631998 88.652409 -1299.915318 310.187485 554.346963 77396 4974.572324
0.065000 0.065232 20882.743255 258.803686 -1713.141319 114.310373 2043.967875 108936 4974.572324
0.075000 0.075229 17723.953612 240.626457 -566.403263 -127.662506 3393.549101 144980 4974.572324
0.085000 0.085193 14957.595666 209.915878 -1277.765404 108.428570 531.424078 184854 4974.572324
0.095000 0.095166 12142.316663 166.457402 -808.401828 -56.992064 375.289295 232260 4974.572324
0.105000 0.105155 10543.905326 116.956722 -1110.562310 -45.583718 -482.746353 282884 4974.572324
0.115000 0.115131 9530.665085 97.583537 -1516.270796 22.706493 367.799356 339084 4974.572324
0.125000 0.125124 8487.391471 82.188104 -1079.261990 -51.606469 82.400134 401864 4974.572324
0.135000 0.135125 7873.471844 76.369949 -707.350639 -34.250244 -61.340599 468084 4974.572324
0.145000 0.145120 6940.101467 83.467996 -720.973455 3.816609 -264.997246 539940 4974.572324
0.155000 0.155118 6243.328486 85.297682 -983.628829 21.035720 240.187260 617324 4974.572324
0.165000 0.165105 5432.570269 77.771026 -736.913728 -25.678890 112.169862 697452 4974.572324
0.175000 0.175088 5040.221273 54.222192 -748.170254 -28.220897 -6.974569 785846 4974.572324
0.185000 0.185089 4647.699639 56.384394 -520.337201 -33.069392 50.321970 879528 4974.572324
0.195000 0.195093 4416.739780 57.296333 -494.065065 0.825624 -1.480584 976596 4974.572324
0.205000 0.205084 4027.723900 58.624816 -686.594609 17.083021 212.059270 1077212 4974.572324
0.215000 0.215076 3622.888398 53.174594 -635.613371 -38.337757 84.289378 1186908 4974.572324
0.225000 0.225076 3374.968216 56.080558 -430.330976 18.844336 120.668846 1299452 4974.572324
0.235000 0.235073 3043.263797 44.105994 -606.664993 6.776993 98.848776 1417356 4974.572324
0.245000 0.245067 2840.512599 59.007302 -673.162824 -27.998336 173.920446 1539600 4974.572324
0.255000 0.255064 2690.771783 42.726672 -613.603627 -1.007309 194.525845 1669820 4974.572324
0.265000 0.265061 2490.668032 46.215852 -587.071705 1.494917 86.525571 1801086 4974.572324
0.275000 0.275060 2319.163831 44.948500 -846.828232 4.263163 113.532030 1942244 4974.572324
0.285000 0.285062 2106.064408 45.843340 -681.207285 8.499081 297.366331 2084796 4974.572324
0.295000 0.295057 2020.663849 51.571240 -716.018517 -25.215232 279.089373 2231868 4974.572324
