#Data file /home/DATA/sbrieden/Patchy_dr12_mocks/postrecon/original/Patchy-Mocks-DR12LOWZ-N-V5C-Portsmouth-mass_f0693b1850s10_0062.dat
#Random file /home/DATA/sbrieden/Patchy_dr12_mocks/postrecon/original/Patchy-Mocks-DR12LOWZ-N-V5C-Portsmouth-mass_f0693b1850s10_0062.ran
#Number of data elements used: 234352
#Number of random elements used: 4683413
#Effective number of data elements weighted by wcol: 234352.000000
#Effective number of random elements weighted by wcol: 4683413.000000
#Effective number of data elements weighted by wcol*wsys: 234352.000000
#Effective number of random elements weighted by wcol*wsys: 4683413.000000
#Effective redshift value from data 0.330220
#Effective redshift value from randoms 0.329852
#Size of the Box 2500.000000 Mpc/h
#Area of the survey used 5826.000000 deg^2
#Value of alpha: 0.050093
#Normalization using data file
#Normalization using density
#Normalization 4.345998
#Shot noise factor 1.000000
#Shot noise value 3662.017999
#Type of Computation: FFT
#Number of grid cells: 512
#Type of Mass Assigment: TSC
#Type of Yamamoto: GridCenter
#Number of Interlacing steps: 2
#Grid Correction: yes
#Value of Om=0.310000
#Quadrupole as L2
#Octopole as L3
#Hexadecapole as L2L2
#k-centerbin	 k-eff	 Monopole-Pshotnoise	 Dipole	 Quadrupole	 Octopole	 Hexadecapole	 number of modes	 Pshotnoise
0.005000 0.007385 44696.079892 -9865.213773 -34949.539182 11671.251161 18670.062598 250 3662.017999
0.015000 0.016012 53871.657293 -2905.949026 -25937.651077 -11272.472752 -7723.955009 1852 3662.017999
0.025000 0.025646 48644.615276 2586.534272 -2099.336397 688.681676 4205.913441 5020 3662.017999
0.035000 0.035469 37646.462870 721.556165 -6219.365541 -1300.672134 -1246.337882 9756 3662.017999
0.045000 0.045368 33545.606221 831.719135 -2079.930049 -1001.438844 3571.200798 16108 3662.017999
0.055000 0.055314 25974.850320 592.349815 -4241.315531 702.620963 -923.519591 24064 3662.017999
0.065000 0.065258 22323.045163 472.165018 -3461.599654 -547.218000 3512.104992 33396 3662.017999
0.075000 0.075209 19962.791606 147.413842 -3049.636196 28.277688 1536.747309 44596 3662.017999
0.085000 0.085175 16198.607933 622.745200 -585.207034 -612.158624 -793.081834 57124 3662.017999
0.095000 0.095157 13067.611916 297.333186 -304.138504 509.416268 672.630332 71620 3662.017999
0.105000 0.105162 11243.737363 167.316055 -1440.156901 -337.617656 -812.757131 87552 3662.017999
0.115000 0.115148 10159.335879 108.502027 -953.174217 -92.842034 -667.768246 104524 3662.017999
0.125000 0.125146 9254.493567 118.326747 -1244.868285 226.599024 -125.338932 124228 3662.017999
0.135000 0.135146 8579.302226 143.565945 -1348.490516 -152.989280 541.416091 144204 3662.017999
0.145000 0.145132 7425.484913 194.673699 -881.100863 -48.337636 182.394406 166492 3662.017999
0.155000 0.155114 6494.891749 30.849275 -921.831339 12.694291 170.195532 189964 3662.017999
0.165000 0.165102 5957.109860 101.837964 -979.247557 -7.474792 217.472991 215640 3662.017999
0.175000 0.175105 5368.571800 70.043432 -662.677364 -15.320706 378.839932 242836 3662.017999
0.185000 0.185097 4978.264247 62.246877 -655.430227 31.462771 102.836540 270556 3662.017999
0.195000 0.195085 4604.186704 99.667919 -662.018547 -65.786973 251.718601 301084 3662.017999
0.205000 0.205080 3952.724645 82.611515 -491.472570 2.969091 442.748063 332628 3662.017999
0.215000 0.215092 3789.582763 21.222473 -763.942605 39.423383 52.157891 367216 3662.017999
0.225000 0.225099 3402.841728 82.525025 -870.742777 -114.929320 -4.136271 400444 3662.017999
0.235000 0.235081 3087.398068 54.316475 -610.166119 37.173399 -74.172864 436500 3662.017999
0.245000 0.245077 2805.238160 34.909039 -692.404730 7.156846 324.134726 475900 3662.017999
0.255000 0.255082 2651.726975 49.011005 -689.998786 -8.390927 28.876220 514900 3662.017999
0.265000 0.265074 2525.423002 38.576497 -758.336237 2.954871 225.638100 555408 3662.017999
0.275000 0.275066 2272.119301 35.219366 -807.123905 9.548646 330.000645 598684 3662.017999
0.285000 0.285066 2205.285898 39.932989 -914.748775 -27.101240 168.845758 643228 3662.017999
0.295000 0.295058 2028.443840 34.358723 -755.524640 -20.747710 202.072773 688036 3662.017999
