#Data file /home/DATA/sbrieden/Patchy_dr12_mocks/postrecon/original/Patchy-Mocks-DR12LOWZ-S-V5C-Portsmouth-mass_f0693b1850s10_0074.dat
#Random file /home/DATA/sbrieden/Patchy_dr12_mocks/postrecon/original/Patchy-Mocks-DR12LOWZ-S-V5C-Portsmouth-mass_f0693b1850s10_0074.ran
#Number of data elements used: 102483
#Number of random elements used: 2003510
#Effective number of data elements weighted by wcol: 102483.000000
#Effective number of random elements weighted by wcol: 2003510.000000
#Effective number of data elements weighted by wcol*wsys: 102483.000000
#Effective number of random elements weighted by wcol*wsys: 2003510.000000
#Effective redshift value from data 0.330119
#Effective redshift value from randoms 0.329844
#Size of the Box 2500.000000 Mpc/h
#Area of the survey used 2501.000000 deg^2
#Value of alpha: 0.051182
#Normalization using data file
#Normalization using density
#Normalization 1.899307
#Shot noise factor 1.000000
#Shot noise value 3659.984860
#Type of Computation: FFT
#Number of grid cells: 512
#Type of Mass Assigment: TSC
#Type of Yamamoto: GridCenter
#Number of Interlacing steps: 2
#Grid Correction: yes
#Value of Om=0.310000
#Quadrupole as L2
#Octopole as L3
#Hexadecapole as L2L2
#k-centerbin	 k-eff	 Monopole-Pshotnoise	 Dipole	 Quadrupole	 Octopole	 Hexadecapole	 number of modes	 Pshotnoise
0.005000 0.007385 33895.078761 -6750.367598 -26039.401798 -15800.471726 -9945.343225 250 3659.984860
0.015000 0.016012 46833.744457 -3920.743721 -11575.684744 -5305.047225 -22561.959927 1852 3659.984860
0.025000 0.025646 49590.289303 995.666236 -25245.064832 -6304.716096 -15090.070706 5020 3659.984860
0.035000 0.035469 33853.956860 1995.244368 -3926.811430 -1837.269613 3294.000710 9756 3659.984860
0.045000 0.045368 30170.014649 -1.139959 44.429518 -368.947652 3385.745415 16108 3659.984860
0.055000 0.055314 25770.287506 1106.695458 346.454332 -166.156348 162.168602 24064 3659.984860
0.065000 0.065258 22117.835787 64.804199 372.096507 950.032647 -11.806929 33396 3659.984860
0.075000 0.075209 19177.093915 408.799318 -1751.412999 15.780386 1567.868979 44596 3659.984860
0.085000 0.085175 16183.708285 377.745983 -1095.586408 87.759737 -678.450000 57124 3659.984860
0.095000 0.095157 13908.669966 165.449287 -1770.951804 -467.215029 489.148740 71620 3659.984860
0.105000 0.105162 12173.518820 266.391725 186.934332 -194.271260 -1352.159354 87552 3659.984860
0.115000 0.115148 10256.053619 146.052235 346.152175 292.623136 -641.053385 104524 3659.984860
0.125000 0.125146 9542.663031 149.479872 -34.043239 -107.784770 666.729223 124228 3659.984860
0.135000 0.135146 8659.407848 157.681575 -595.616306 16.637668 161.000342 144204 3659.984860
0.145000 0.145132 7488.907092 153.004072 -417.021890 49.698803 207.008029 166492 3659.984860
0.155000 0.155114 6685.091998 44.392955 -932.867447 8.393904 238.436404 189964 3659.984860
0.165000 0.165102 5878.747318 138.082551 -1027.428908 -16.974974 -442.484860 215640 3659.984860
0.175000 0.175105 5196.441655 91.418865 -963.617479 -68.855245 10.175275 242836 3659.984860
0.185000 0.185097 4678.926812 73.957513 -736.506262 -96.134598 -284.297238 270556 3659.984860
0.195000 0.195085 4412.413467 60.457698 -419.587281 61.668838 441.093847 301084 3659.984860
0.205000 0.205080 4035.138966 81.616266 -448.240949 -42.448167 199.384628 332628 3659.984860
0.215000 0.215092 3648.930490 16.037898 -672.032526 74.616174 175.702349 367216 3659.984860
0.225000 0.225099 3470.188034 78.485798 -774.576773 -36.178307 39.694441 400444 3659.984860
0.235000 0.235081 3159.740471 40.020924 -655.490878 -10.992216 25.146322 436500 3659.984860
0.245000 0.245077 2787.856020 54.615039 -657.359590 -7.174380 85.519639 475900 3659.984860
0.255000 0.255082 2739.112827 37.321593 -691.684420 -45.193499 -193.818416 514900 3659.984860
0.265000 0.265074 2485.076103 65.890665 -655.026280 0.749755 37.406378 555408 3659.984860
0.275000 0.275066 2256.575577 30.378718 -704.599649 39.530520 163.937337 598684 3659.984860
0.285000 0.285066 2156.199162 25.148055 -963.813356 31.466584 171.114891 643228 3659.984860
0.295000 0.295058 2001.335287 32.011310 -707.268140 -44.062591 551.049820 688036 3659.984860
