#Data file /home/DATA/sbrieden/Patchy_dr12_mocks/postrecon/original/Patchy-Mocks-DR12LOWZ-S-V5C-Portsmouth-mass_f0693b1850s10_0050.dat
#Random file /home/DATA/sbrieden/Patchy_dr12_mocks/postrecon/original/Patchy-Mocks-DR12LOWZ-S-V5C-Portsmouth-mass_f0693b1850s10_0050.ran
#Number of data elements used: 101478
#Number of random elements used: 2006155
#Effective number of data elements weighted by wcol: 101478.000000
#Effective number of random elements weighted by wcol: 2006155.000000
#Effective number of data elements weighted by wcol*wsys: 101478.000000
#Effective number of random elements weighted by wcol*wsys: 2006155.000000
#Effective redshift value from data 0.330423
#Effective redshift value from randoms 0.329807
#Size of the Box 2500.000000 Mpc/h
#Area of the survey used 2501.000000 deg^2
#Value of alpha: 0.050678
#Normalization using data file
#Normalization using density
#Normalization 1.882627
#Shot noise factor 1.000000
#Shot noise value 3657.304754
#Type of Computation: FFT
#Number of grid cells: 512
#Type of Mass Assigment: TSC
#Type of Yamamoto: GridCenter
#Number of Interlacing steps: 2
#Grid Correction: yes
#Value of Om=0.310000
#Quadrupole as L2
#Octopole as L3
#Hexadecapole as L2L2
#k-centerbin	 k-eff	 Monopole-Pshotnoise	 Dipole	 Quadrupole	 Octopole	 Hexadecapole	 number of modes	 Pshotnoise
0.005000 0.007385 46618.830134 -777.793085 14155.331720 8444.113480 28557.307038 250 3657.304754
0.015000 0.016012 53155.017162 1892.312843 33451.461903 7451.390715 5822.136143 1852 3657.304754
0.025000 0.025646 43585.272441 -182.186497 11416.812672 10193.473173 10623.927952 5020 3657.304754
0.035000 0.035469 41291.219086 1684.264123 -8317.572269 -2836.138568 5418.277865 9756 3657.304754
0.045000 0.045368 28377.805166 379.420579 -7969.169343 1158.757114 -2645.106155 16108 3657.304754
0.055000 0.055314 26687.748067 552.604659 -6373.517301 -394.657942 5767.693560 24064 3657.304754
0.065000 0.065258 23222.066950 615.180794 2074.885215 -1177.897341 4172.708959 33396 3657.304754
0.075000 0.075209 19257.623521 268.842674 -356.145478 1371.552968 1668.380820 44596 3657.304754
0.085000 0.085175 16724.942622 256.418010 -2705.678034 -165.824342 3235.741437 57124 3657.304754
0.095000 0.095157 14262.964113 440.878089 -1661.091676 -461.531863 1745.134030 71620 3657.304754
0.105000 0.105162 11720.449626 292.756509 -227.707525 -245.868020 -876.136552 87552 3657.304754
0.115000 0.115148 9800.466565 93.401419 -55.325490 440.611907 1867.887880 104524 3657.304754
0.125000 0.125146 9208.202974 51.905920 -1013.928679 31.091425 742.313027 124228 3657.304754
0.135000 0.135146 8663.671184 157.484113 -864.640028 -285.702279 411.589562 144204 3657.304754
0.145000 0.145132 7511.094640 181.089412 -734.960952 148.136871 45.009498 166492 3657.304754
0.155000 0.155114 6264.739221 136.674456 -603.666490 -97.321768 -120.291817 189964 3657.304754
0.165000 0.165102 5607.252495 43.449266 -762.360909 -28.053983 129.413007 215640 3657.304754
0.175000 0.175105 5307.159646 76.262285 -820.623906 117.162024 8.341887 242836 3657.304754
0.185000 0.185097 4953.792144 46.421941 -747.949648 -44.747174 552.756599 270556 3657.304754
0.195000 0.195085 4437.569514 81.380357 -1150.768076 31.044794 158.092528 301084 3657.304754
0.205000 0.205080 4133.768207 62.157961 -871.755807 -82.433049 373.873778 332628 3657.304754
0.215000 0.215092 3572.424462 87.834664 -541.394152 -15.279457 625.348356 367216 3657.304754
0.225000 0.225099 3336.754644 52.652577 -662.081279 -53.241548 -22.046650 400444 3657.304754
0.235000 0.235081 3081.909384 18.189438 -905.141437 72.606993 -78.296775 436500 3657.304754
0.245000 0.245077 2945.284692 76.966456 -767.310407 -107.921616 55.992276 475900 3657.304754
0.255000 0.255082 2553.816975 34.320698 -487.223745 41.983550 342.825712 514900 3657.304754
0.265000 0.265074 2517.268805 45.594149 -532.420793 -37.544224 266.392043 555408 3657.304754
0.275000 0.275066 2313.106728 41.089758 -450.486536 13.847825 245.609733 598684 3657.304754
0.285000 0.285066 2120.752526 49.121286 -513.645891 1.602145 46.717461 643228 3657.304754
0.295000 0.295058 1940.570451 44.831710 -599.788849 -45.474149 256.150192 688036 3657.304754
