#Data file /home/DATA/sbrieden/Patchy_dr12_mocks/postrecon/original/Patchy-Mocks-DR12CMASS-N-V6C-Portsmouth-mass_f0784b1850s10_0061.dat
#Random file /home/DATA/sbrieden/Patchy_dr12_mocks/postrecon/original/Patchy-Mocks-DR12CMASS-N-V6C-Portsmouth-mass_f0784b1850s10_0061.ran
#Number of data elements used: 589275
#Number of random elements used: 11769517
#Effective number of data elements weighted by wcol: 589275.000000
#Effective number of random elements weighted by wcol: 11769517.000000
#Effective number of data elements weighted by wcol*wsys: 589275.000000
#Effective number of random elements weighted by wcol*wsys: 11769517.000000
#Effective redshift value from data 0.597713
#Effective redshift value from randoms 0.597830
#Size of the Box 3700.000000 Mpc/h
#Area of the survey used 6851.000000 deg^2
#Value of alpha: 0.050073
#Normalization using data file
#Normalization using density
#Normalization 11.065677
#Shot noise factor 1.000000
#Shot noise value 4963.609226
#Type of Computation: FFT
#Number of grid cells: 512
#Type of Mass Assigment: TSC
#Type of Yamamoto: GridCenter
#Number of Interlacing steps: 2
#Grid Correction: yes
#Value of Om=0.310000
#Quadrupole as L2
#Octopole as L3
#Hexadecapole as L2L2
#k-centerbin	 k-eff	 Monopole-Pshotnoise	 Dipole	 Quadrupole	 Octopole	 Hexadecapole	 number of modes	 Pshotnoise
0.005000 0.007485 40421.703313 148.609356 10303.954015 -1897.875542 -14781.818119 846 4963.609226
0.015000 0.016072 50296.766591 -2813.177387 -6852.298438 3717.143379 8041.858591 6012 4963.609226
0.025000 0.025646 45213.588148 1868.082923 -7006.288478 -2548.960026 -8472.456728 16172 4963.609226
0.035000 0.035469 37308.293586 371.730590 -3881.889879 -125.030979 2251.430936 31764 4963.609226
0.045000 0.045378 28079.247954 459.196673 -3008.765467 232.868412 3177.805024 52164 4963.609226
0.055000 0.055280 23578.151827 257.896516 -1858.059146 -427.715667 -1998.042048 77396 4963.609226
0.065000 0.065232 20299.457738 192.285938 -2647.496388 65.660770 -148.752451 108936 4963.609226
0.075000 0.075229 17650.446461 267.472560 -1151.944782 -171.660045 -136.347430 144980 4963.609226
0.085000 0.085193 14805.040475 231.775020 -1457.613498 -69.942712 -1542.878939 184854 4963.609226
0.095000 0.095166 12360.490926 147.594441 -1008.860364 2.355892 -597.724213 232260 4963.609226
0.105000 0.105155 10461.158526 158.893127 -1442.491620 -22.894982 -273.159349 282884 4963.609226
0.115000 0.115131 9497.275222 50.254377 -1098.776656 -8.197975 297.857175 339084 4963.609226
0.125000 0.125124 8722.257330 116.513427 -1004.086451 -57.517205 68.057119 401864 4963.609226
0.135000 0.135125 7821.821244 69.010846 -1022.461376 -48.626484 -214.899630 468084 4963.609226
0.145000 0.145120 7040.861847 117.854522 -650.814512 -51.271181 30.404622 539940 4963.609226
0.155000 0.155118 6131.971756 72.490895 -536.851772 62.344361 -25.735542 617324 4963.609226
0.165000 0.165105 5539.664547 59.499222 -553.406751 -23.404368 508.059309 697452 4963.609226
0.175000 0.175088 5153.398873 48.775712 -670.744080 18.623100 133.497627 785846 4963.609226
0.185000 0.185089 4786.075980 46.772743 -584.375496 0.964699 255.426503 879528 4963.609226
0.195000 0.195093 4506.350176 66.035124 -733.328970 -17.148591 176.028277 976596 4963.609226
0.205000 0.205084 4047.431898 64.411167 -697.196142 5.360598 -4.622173 1077212 4963.609226
0.215000 0.215076 3667.441871 62.385296 -891.384017 -36.046918 210.084506 1186908 4963.609226
0.225000 0.225076 3349.025800 48.426240 -587.289315 7.726256 33.433460 1299452 4963.609226
0.235000 0.235073 3011.368359 48.695392 -662.896695 -6.880618 146.170749 1417356 4963.609226
0.245000 0.245067 2853.206400 49.798024 -628.979480 -3.330252 293.990451 1539600 4963.609226
0.255000 0.255064 2644.667820 52.301459 -683.692339 -2.782737 278.023536 1669820 4963.609226
0.265000 0.265061 2466.002979 35.417237 -814.529196 3.670313 178.407837 1801086 4963.609226
0.275000 0.275060 2295.444260 53.701256 -642.707851 -27.758587 120.423210 1942244 4963.609226
0.285000 0.285062 2154.182252 47.840236 -672.882883 1.802325 199.716630 2084796 4963.609226
0.295000 0.295057 2040.827600 48.500001 -768.444916 -16.869180 173.132006 2231868 4963.609226
