#Data file /home/DATA/sbrieden/Patchy_dr12_mocks/postrecon/original/Patchy-Mocks-DR12CMASS-S-V6C-Portsmouth-mass_f0784b1850s10_0045.dat
#Random file /home/DATA/sbrieden/Patchy_dr12_mocks/postrecon/original/Patchy-Mocks-DR12CMASS-S-V6C-Portsmouth-mass_f0784b1850s10_0045.ran
#Number of data elements used: 212801
#Number of random elements used: 4285878
#Effective number of data elements weighted by wcol: 212801.000000
#Effective number of random elements weighted by wcol: 4285878.000000
#Effective number of data elements weighted by wcol*wsys: 212801.000000
#Effective number of random elements weighted by wcol*wsys: 4285878.000000
#Effective redshift value from data 0.597058
#Effective redshift value from randoms 0.596876
#Size of the Box 3700.000000 Mpc/h
#Area of the survey used 2525.000000 deg^2
#Value of alpha: 0.049773
#Normalization using data file
#Normalization using density
#Normalization 4.043919
#Shot noise factor 1.000000
#Shot noise value 4946.640315
#Type of Computation: FFT
#Number of grid cells: 512
#Type of Mass Assigment: TSC
#Type of Yamamoto: GridCenter
#Number of Interlacing steps: 2
#Grid Correction: yes
#Value of Om=0.310000
#Quadrupole as L2
#Octopole as L3
#Hexadecapole as L2L2
#k-centerbin	 k-eff	 Monopole-Pshotnoise	 Dipole	 Quadrupole	 Octopole	 Hexadecapole	 number of modes	 Pshotnoise
0.005000 0.007485 45061.826186 -3179.245368 -20415.363154 -11274.267232 -27161.434270 846 4946.640315
0.015000 0.016072 49045.805253 90.105297 -24724.595211 -1731.625326 11294.769115 6012 4946.640315
0.025000 0.025646 40122.858067 381.153488 -3490.833039 -901.038313 1060.998920 16172 4946.640315
0.035000 0.035469 34088.332321 914.024796 616.355499 -252.992292 9044.020497 31764 4946.640315
0.045000 0.045378 26387.662119 31.293128 -6231.295627 795.684362 -2691.123830 52164 4946.640315
0.055000 0.055280 21989.348410 319.313074 -4581.046496 -680.436407 424.657991 77396 4946.640315
0.065000 0.065232 19807.289384 161.451508 -3037.420231 -188.687256 -1997.984320 108936 4946.640315
0.075000 0.075229 16944.304267 242.087510 -2953.500582 -288.320133 -1912.504520 144980 4946.640315
0.085000 0.085193 14955.783470 192.990362 -2573.503926 -0.874935 -1826.154708 184854 4946.640315
0.095000 0.095166 11718.852624 207.118629 -2106.839802 24.138018 921.426586 232260 4946.640315
0.105000 0.105155 9659.106649 114.120412 -1078.047260 -8.716341 335.287354 282884 4946.640315
0.115000 0.115131 8811.256780 85.904391 -1134.147278 -120.356721 173.818650 339084 4946.640315
0.125000 0.125124 8638.960291 28.255136 -1166.310100 36.741786 716.036813 401864 4946.640315
0.135000 0.135125 7908.752572 129.541356 -471.116913 -92.922061 751.872356 468084 4946.640315
0.145000 0.145120 7104.599663 74.746050 -362.835307 19.630528 89.254872 539940 4946.640315
0.155000 0.155118 6142.852171 77.001807 -694.579735 20.267775 -182.478570 617324 4946.640315
0.165000 0.165105 5447.266380 64.959576 -933.596756 -4.486013 -53.149521 697452 4946.640315
0.175000 0.175088 4782.290558 70.086432 -836.066310 -44.591995 -88.894548 785846 4946.640315
0.185000 0.185089 4566.807652 55.868391 -719.114626 -38.933417 -453.044450 879528 4946.640315
0.195000 0.195093 4182.637795 54.020886 -341.693672 28.438437 -219.288929 976596 4946.640315
0.205000 0.205084 3860.212857 75.713844 -569.714489 -36.718737 240.816289 1077212 4946.640315
0.215000 0.215076 3530.210675 50.037567 -729.494646 -9.594420 3.126032 1186908 4946.640315
0.225000 0.225076 3083.158986 51.619451 -510.839437 15.438514 20.117369 1299452 4946.640315
0.235000 0.235073 2883.121172 30.807581 -773.113566 30.964300 167.245525 1417356 4946.640315
0.245000 0.245067 2806.975047 45.663951 -824.184437 -0.970448 272.394792 1539600 4946.640315
0.255000 0.255064 2565.992736 59.424327 -743.349098 -42.731105 190.664766 1669820 4946.640315
0.265000 0.265061 2404.614485 40.310266 -720.839118 8.988921 302.615867 1801086 4946.640315
0.275000 0.275060 2209.376076 47.643852 -660.795396 -16.245554 308.348275 1942244 4946.640315
0.285000 0.285062 2088.249108 41.477375 -561.246832 -5.364062 174.293281 2084796 4946.640315
0.295000 0.295057 1955.470864 48.125537 -707.657315 -4.074814 174.482761 2231868 4946.640315
