#Data file /home/DATA/sbrieden/Patchy_dr12_mocks/postrecon/original/Patchy-Mocks-DR12CMASS-N-V6C-Portsmouth-mass_f0784b1850s10_0037.dat
#Random file /home/DATA/sbrieden/Patchy_dr12_mocks/postrecon/original/Patchy-Mocks-DR12CMASS-N-V6C-Portsmouth-mass_f0784b1850s10_0037.ran
#Number of data elements used: 585692
#Number of random elements used: 11766877
#Effective number of data elements weighted by wcol: 585692.000000
#Effective number of random elements weighted by wcol: 11766877.000000
#Effective number of data elements weighted by wcol*wsys: 585692.000000
#Effective number of random elements weighted by wcol*wsys: 11766877.000000
#Effective redshift value from data 0.597979
#Effective redshift value from randoms 0.597807
#Size of the Box 3700.000000 Mpc/h
#Area of the survey used 6851.000000 deg^2
#Value of alpha: 0.049891
#Normalization using data file
#Normalization using density
#Normalization 11.009875
#Shot noise factor 1.000000
#Shot noise value 4984.671388
#Type of Computation: FFT
#Number of grid cells: 512
#Type of Mass Assigment: TSC
#Type of Yamamoto: GridCenter
#Number of Interlacing steps: 2
#Grid Correction: yes
#Value of Om=0.310000
#Quadrupole as L2
#Octopole as L3
#Hexadecapole as L2L2
#k-centerbin	 k-eff	 Monopole-Pshotnoise	 Dipole	 Quadrupole	 Octopole	 Hexadecapole	 number of modes	 Pshotnoise
0.005000 0.007485 56266.524713 -7715.769580 -21048.301588 4273.245636 7795.118454 846 4984.671388
0.015000 0.016072 60025.098369 1281.013961 -17812.166018 -4519.078936 1029.438739 6012 4984.671388
0.025000 0.025646 44891.758297 661.969091 -1822.232377 -1229.658910 -4652.057932 16172 4984.671388
0.035000 0.035469 37060.592568 583.306586 -3082.345686 87.785907 -1926.291732 31764 4984.671388
0.045000 0.045378 29351.100375 687.289575 -2071.300561 93.801709 4508.170311 52164 4984.671388
0.055000 0.055280 22641.675207 210.095587 -2547.453558 9.599994 422.454559 77396 4984.671388
0.065000 0.065232 20273.506445 213.011231 -3492.250771 -203.591452 71.490703 108936 4984.671388
0.075000 0.075229 17895.134460 226.139250 -2790.825893 -90.957540 -228.330026 144980 4984.671388
0.085000 0.085193 14530.102382 297.822004 -868.598374 -214.363543 735.074346 184854 4984.671388
0.095000 0.095166 12289.341551 85.337364 -1219.985633 147.780401 -133.456692 232260 4984.671388
0.105000 0.105155 10171.995042 160.251177 -1458.014853 -93.461413 504.581550 282884 4984.671388
0.115000 0.115131 9487.252375 49.277755 -1236.816278 -49.700205 -494.752124 339084 4984.671388
0.125000 0.125124 8734.337161 89.999612 -1134.446806 -31.620829 -139.479014 401864 4984.671388
0.135000 0.135125 8010.107231 95.229919 -673.377745 -54.560766 -627.889030 468084 4984.671388
0.145000 0.145120 7035.263532 98.747586 -415.694450 36.763124 -127.893736 539940 4984.671388
0.155000 0.155118 6213.869885 76.217526 -729.971461 0.687756 300.278854 617324 4984.671388
0.165000 0.165105 5605.071698 74.082453 -526.767753 -4.407181 352.198095 697452 4984.671388
0.175000 0.175088 5031.460539 62.830691 -417.870837 -36.238615 47.266998 785846 4984.671388
0.185000 0.185089 4730.292807 37.826515 -727.885858 62.497848 65.639803 879528 4984.671388
0.195000 0.195093 4392.055535 56.850211 -832.226691 -24.806643 77.827447 976596 4984.671388
0.205000 0.205084 4006.231628 56.489382 -693.341222 -5.010216 91.500694 1077212 4984.671388
0.215000 0.215076 3636.755087 67.869118 -592.190178 -23.964134 174.269201 1186908 4984.671388
0.225000 0.225076 3299.746494 56.787744 -601.087067 -16.099751 208.814638 1299452 4984.671388
0.235000 0.235073 3057.791939 45.537808 -612.310294 4.417619 42.304336 1417356 4984.671388
0.245000 0.245067 2829.066989 48.515428 -663.424353 -2.917026 165.991458 1539600 4984.671388
0.255000 0.255064 2602.571364 49.383476 -675.691904 -1.521930 188.181936 1669820 4984.671388
0.265000 0.265061 2507.673234 37.686641 -808.696111 3.999649 340.631474 1801086 4984.671388
0.275000 0.275060 2339.767068 50.528189 -744.545526 -8.808637 234.846637 1942244 4984.671388
0.285000 0.285062 2123.802967 49.534184 -683.154373 -21.347876 210.634100 2084796 4984.671388
0.295000 0.295057 1982.859478 48.614783 -620.758042 0.263272 212.794717 2231868 4984.671388
