#Data file /home/DATA/sbrieden/Patchy_dr12_mocks/postrecon/original/Patchy-Mocks-DR12LOWZ-S-V5C-Portsmouth-mass_f0693b1850s10_0033.dat
#Random file /home/DATA/sbrieden/Patchy_dr12_mocks/postrecon/original/Patchy-Mocks-DR12LOWZ-S-V5C-Portsmouth-mass_f0693b1850s10_0033.ran
#Number of data elements used: 100403
#Number of random elements used: 2006481
#Effective number of data elements weighted by wcol: 100403.000000
#Effective number of random elements weighted by wcol: 2006481.000000
#Effective number of data elements weighted by wcol*wsys: 100403.000000
#Effective number of random elements weighted by wcol*wsys: 2006481.000000
#Effective redshift value from data 0.329982
#Effective redshift value from randoms 0.330299
#Size of the Box 2500.000000 Mpc/h
#Area of the survey used 2501.000000 deg^2
#Value of alpha: 0.050071
#Normalization using data file
#Normalization using density
#Normalization 1.861736
#Shot noise factor 1.000000
#Shot noise value 3663.237622
#Type of Computation: FFT
#Number of grid cells: 512
#Type of Mass Assigment: TSC
#Type of Yamamoto: GridCenter
#Number of Interlacing steps: 2
#Grid Correction: yes
#Value of Om=0.310000
#Quadrupole as L2
#Octopole as L3
#Hexadecapole as L2L2
#k-centerbin	 k-eff	 Monopole-Pshotnoise	 Dipole	 Quadrupole	 Octopole	 Hexadecapole	 number of modes	 Pshotnoise
0.005000 0.007385 17717.267834 -5891.971607 7944.296135 -631.341542 13162.569611 250 3663.237622
0.015000 0.016012 49204.502413 93.590714 -8871.234815 -8289.815539 -28102.088728 1852 3663.237622
0.025000 0.025646 40141.076191 1263.539874 -5605.266623 -2822.445270 -1082.671513 5020 3663.237622
0.035000 0.035469 34134.190541 129.513569 3809.216697 2487.002429 5291.425278 9756 3663.237622
0.045000 0.045368 29738.137447 716.782323 -7759.306957 -261.180996 3847.710054 16108 3663.237622
0.055000 0.055314 26955.622562 -48.193042 1504.231800 109.870144 -2676.319099 24064 3663.237622
0.065000 0.065258 24814.212796 848.820087 -4102.021985 -1334.203373 -3506.851809 33396 3663.237622
0.075000 0.075209 19273.375686 481.735488 -1722.760441 568.215021 -4049.342967 44596 3663.237622
0.085000 0.085175 15700.700405 285.278788 -1557.827617 -562.609955 -1455.674131 57124 3663.237622
0.095000 0.095157 12765.250074 363.032092 -959.209152 132.910556 -139.972815 71620 3663.237622
0.105000 0.105162 12149.649028 30.039097 22.899716 14.304384 637.784021 87552 3663.237622
0.115000 0.115148 10562.652902 227.479478 -417.538192 -173.108790 453.716800 104524 3663.237622
0.125000 0.125146 9807.268420 126.506853 -1514.202824 290.974491 392.152843 124228 3663.237622
0.135000 0.135146 8595.709018 180.941397 -182.011578 -70.349172 776.948160 144204 3663.237622
0.145000 0.145132 7096.902662 157.418769 -149.585327 -26.560636 738.314809 166492 3663.237622
0.155000 0.155114 6518.595030 92.258422 -991.720180 -61.894950 -492.102687 189964 3663.237622
0.165000 0.165102 5860.161701 75.616914 -907.519658 -98.143983 -601.439921 215640 3663.237622
0.175000 0.175105 5437.648387 91.217348 -360.307291 11.432051 -309.581738 242836 3663.237622
0.185000 0.185097 5051.637380 54.368567 -599.512820 57.704335 495.096607 270556 3663.237622
0.195000 0.195085 4479.963919 86.332386 -624.420930 13.210111 476.676402 301084 3663.237622
0.205000 0.205080 4020.566217 54.575647 -618.159514 -51.083544 -220.777424 332628 3663.237622
0.215000 0.215092 3652.724933 67.450346 -893.411743 25.225782 -182.294617 367216 3663.237622
0.225000 0.225099 3242.514050 80.996952 -683.436129 -42.327758 214.270369 400444 3663.237622
0.235000 0.235081 3023.463005 48.862932 -744.153840 -35.554599 -140.630407 436500 3663.237622
0.245000 0.245077 2747.080566 28.964942 -786.386664 53.966060 210.866406 475900 3663.237622
0.255000 0.255082 2632.200405 36.309567 -815.532477 -26.592074 449.989725 514900 3663.237622
0.265000 0.265074 2436.568427 43.229295 -790.582627 -26.534209 121.154000 555408 3663.237622
0.275000 0.275066 2327.067051 39.780961 -812.502031 16.472399 25.032050 598684 3663.237622
0.285000 0.285066 2074.880735 38.893517 -919.140623 -19.492138 137.296037 643228 3663.237622
0.295000 0.295058 1953.495301 40.434501 -708.767151 -6.371843 303.156268 688036 3663.237622
