#Data file /home/DATA/sbrieden/Patchy_dr12_mocks/postrecon/original/Patchy-Mocks-DR12CMASS-S-V6C-Portsmouth-mass_f0784b1850s10_0027.dat
#Random file /home/DATA/sbrieden/Patchy_dr12_mocks/postrecon/original/Patchy-Mocks-DR12CMASS-S-V6C-Portsmouth-mass_f0784b1850s10_0027.ran
#Number of data elements used: 214692
#Number of random elements used: 4285996
#Effective number of data elements weighted by wcol: 214692.000000
#Effective number of random elements weighted by wcol: 4285996.000000
#Effective number of data elements weighted by wcol*wsys: 214692.000000
#Effective number of random elements weighted by wcol*wsys: 4285996.000000
#Effective redshift value from data 0.596901
#Effective redshift value from randoms 0.596868
#Size of the Box 3700.000000 Mpc/h
#Area of the survey used 2525.000000 deg^2
#Value of alpha: 0.050134
#Normalization using data file
#Normalization using density
#Normalization 4.076816
#Shot noise factor 1.000000
#Shot noise value 4942.513744
#Type of Computation: FFT
#Number of grid cells: 512
#Type of Mass Assigment: TSC
#Type of Yamamoto: GridCenter
#Number of Interlacing steps: 2
#Grid Correction: yes
#Value of Om=0.310000
#Quadrupole as L2
#Octopole as L3
#Hexadecapole as L2L2
#k-centerbin	 k-eff	 Monopole-Pshotnoise	 Dipole	 Quadrupole	 Octopole	 Hexadecapole	 number of modes	 Pshotnoise
0.005000 0.007485 33106.442906 -737.821243 -2568.413236 -12189.584617 -20952.954168 846 4942.513744
0.015000 0.016072 54521.478543 704.747143 648.689182 582.662611 -7237.004262 6012 4942.513744
0.025000 0.025646 42105.681262 232.868799 -6696.878233 -949.641542 -4305.866408 16172 4942.513744
0.035000 0.035469 36040.314663 346.818809 -5064.579349 -76.337871 -819.361538 31764 4942.513744
0.045000 0.045378 28387.416452 791.469661 -5646.958429 -538.074467 -2424.138742 52164 4942.513744
0.055000 0.055280 22763.869504 94.112066 -2389.491389 -59.583563 -1331.476149 77396 4942.513744
0.065000 0.065232 19541.966032 230.351963 -1943.863118 123.452815 3889.289322 108936 4942.513744
0.075000 0.075229 16795.021211 225.539893 -3359.055750 149.173332 1634.352171 144980 4942.513744
0.085000 0.085193 13800.484297 181.366017 -1520.611419 -106.854460 1621.599442 184854 4942.513744
0.095000 0.095166 12068.269902 95.215000 -1895.978673 152.981065 926.201569 232260 4942.513744
0.105000 0.105155 10472.510096 215.929810 -2240.366935 -311.509155 224.081400 282884 4942.513744
0.115000 0.115131 9154.283089 53.353463 -1453.383578 -55.619628 -461.137161 339084 4942.513744
0.125000 0.125124 8268.028979 73.398682 -1282.701348 51.604732 132.610301 401864 4942.513744
0.135000 0.135125 7889.267155 109.256947 -880.510765 -122.563192 397.633169 468084 4942.513744
0.145000 0.145120 7086.224340 61.010471 -498.389793 18.077573 964.421864 539940 4942.513744
0.155000 0.155118 6160.341006 118.773834 -1139.801801 -2.287936 -334.997767 617324 4942.513744
0.165000 0.165105 5356.471435 59.242000 -970.002683 6.301599 -86.370837 697452 4942.513744
0.175000 0.175088 4913.276792 54.860373 -1071.807276 -29.260128 -8.279266 785846 4942.513744
0.185000 0.185089 4521.502413 47.455950 -826.721658 -21.109946 164.168733 879528 4942.513744
0.195000 0.195093 4307.244158 59.492442 -979.586669 -13.208253 169.786226 976596 4942.513744
0.205000 0.205084 3935.067846 55.126768 -726.765750 -15.078157 364.041687 1077212 4942.513744
0.215000 0.215076 3599.294277 65.409344 -742.454282 -26.647074 98.915508 1186908 4942.513744
0.225000 0.225076 3306.655960 37.458235 -534.390309 15.285365 16.368161 1299452 4942.513744
0.235000 0.235073 3010.141679 59.787461 -733.423535 -28.105475 73.283785 1417356 4942.513744
0.245000 0.245067 2814.008710 40.938997 -454.328617 38.223410 146.471514 1539600 4942.513744
0.255000 0.255064 2607.696997 39.667994 -757.633105 5.195800 391.051754 1669820 4942.513744
0.265000 0.265061 2445.127086 56.586758 -661.222760 -28.180312 240.599046 1801086 4942.513744
0.275000 0.275060 2221.143228 50.994471 -868.450175 2.388272 259.933100 1942244 4942.513744
0.285000 0.285062 2089.560275 45.276621 -622.307667 -14.134797 244.287066 2084796 4942.513744
0.295000 0.295057 1938.867799 41.410994 -773.530219 -3.445098 371.069605 2231868 4942.513744
