#Data file /home/DATA/sbrieden/Patchy_dr12_mocks/postrecon/original/Patchy-Mocks-DR12CMASS-S-V6C-Portsmouth-mass_f0784b1850s10_0088.dat
#Random file /home/DATA/sbrieden/Patchy_dr12_mocks/postrecon/original/Patchy-Mocks-DR12CMASS-S-V6C-Portsmouth-mass_f0784b1850s10_0088.ran
#Number of data elements used: 214176
#Number of random elements used: 4283493
#Effective number of data elements weighted by wcol: 214176.000000
#Effective number of random elements weighted by wcol: 4283493.000000
#Effective number of data elements weighted by wcol*wsys: 214176.000000
#Effective number of random elements weighted by wcol*wsys: 4283493.000000
#Effective redshift value from data 0.596921
#Effective redshift value from randoms 0.596926
#Size of the Box 3700.000000 Mpc/h
#Area of the survey used 2525.000000 deg^2
#Value of alpha: 0.050052
#Normalization using data file
#Normalization using density
#Normalization 4.066882
#Shot noise factor 1.000000
#Shot noise value 4946.910653
#Type of Computation: FFT
#Number of grid cells: 512
#Type of Mass Assigment: TSC
#Type of Yamamoto: GridCenter
#Number of Interlacing steps: 2
#Grid Correction: yes
#Value of Om=0.310000
#Quadrupole as L2
#Octopole as L3
#Hexadecapole as L2L2
#k-centerbin	 k-eff	 Monopole-Pshotnoise	 Dipole	 Quadrupole	 Octopole	 Hexadecapole	 number of modes	 Pshotnoise
0.005000 0.007485 56408.311918 1949.017865 -523.053633 -16946.667126 -30953.414307 846 4946.910653
0.015000 0.016072 47206.846518 -2070.522661 5147.289581 8157.535303 11099.446687 6012 4946.910653
0.025000 0.025646 41907.572751 1671.591874 -4000.027942 -3190.536933 -8935.242490 16172 4946.910653
0.035000 0.035469 33676.191277 540.955564 -5483.224034 -4.205923 6955.214233 31764 4946.910653
0.045000 0.045378 27912.715439 97.629383 -1185.147300 485.912567 2238.441594 52164 4946.910653
0.055000 0.055280 22727.518391 353.845554 -1490.037834 -475.814037 -1470.453445 77396 4946.910653
0.065000 0.065232 19210.302467 258.652609 -1961.797513 285.794301 -1088.891240 108936 4946.910653
0.075000 0.075229 17069.010835 192.190794 -1344.690489 -193.737194 976.510243 144980 4946.910653
0.085000 0.085193 14058.488194 188.330222 -1606.446674 -15.655379 513.237998 184854 4946.910653
0.095000 0.095166 11888.328482 170.937964 -871.595124 76.087576 91.024806 232260 4946.910653
0.105000 0.105155 10176.230931 140.095542 -1987.598151 -112.793046 304.207328 282884 4946.910653
0.115000 0.115131 8972.457027 94.514800 -1492.194848 -97.542555 56.636361 339084 4946.910653
0.125000 0.125124 8370.493840 43.414662 -697.968314 10.152827 -453.795324 401864 4946.910653
0.135000 0.135125 7837.086801 101.325951 -920.805458 -20.159329 -78.747147 468084 4946.910653
0.145000 0.145120 6982.798440 80.473074 -699.944044 17.114949 855.208551 539940 4946.910653
0.155000 0.155118 6073.168593 72.875925 -759.173912 7.361753 30.124053 617324 4946.910653
0.165000 0.165105 5393.254317 91.463088 -1251.751757 -28.960939 -32.487989 697452 4946.910653
0.175000 0.175088 4951.349505 47.778173 -576.818643 -49.336323 161.734154 785846 4946.910653
0.185000 0.185089 4588.153159 50.668892 -610.843879 -14.138214 290.041597 879528 4946.910653
0.195000 0.195093 4209.145874 67.592436 -827.237799 71.629607 273.765834 976596 4946.910653
0.205000 0.205084 3855.102537 43.675263 -729.410981 -40.691388 340.577896 1077212 4946.910653
0.215000 0.215076 3599.532926 63.885240 -1207.925654 16.513589 226.579192 1186908 4946.910653
0.225000 0.225076 3100.524777 56.445109 -994.765077 -44.374120 192.121522 1299452 4946.910653
0.235000 0.235073 2996.556229 43.255781 -677.013482 -40.761485 91.541356 1417356 4946.910653
0.245000 0.245067 2788.230204 45.694459 -701.820650 16.874106 122.991114 1539600 4946.910653
0.255000 0.255064 2513.492233 55.915202 -696.492177 -17.842508 97.184540 1669820 4946.910653
0.265000 0.265061 2393.019319 39.740569 -941.228352 27.053578 429.294942 1801086 4946.910653
0.275000 0.275060 2266.401162 44.191627 -973.246418 -37.065359 273.730765 1942244 4946.910653
0.285000 0.285062 2100.896317 52.267232 -816.241717 -13.277467 301.179532 2084796 4946.910653
0.295000 0.295057 1934.309306 40.391981 -855.440537 7.126846 188.418857 2231868 4946.910653
