#Data file /home/DATA/sbrieden/Patchy_dr12_mocks/postrecon/original/Patchy-Mocks-DR12CMASS-S-V6C-Portsmouth-mass_f0784b1850s10_0066.dat
#Random file /home/DATA/sbrieden/Patchy_dr12_mocks/postrecon/original/Patchy-Mocks-DR12CMASS-S-V6C-Portsmouth-mass_f0784b1850s10_0066.ran
#Number of data elements used: 213952
#Number of random elements used: 4285334
#Effective number of data elements weighted by wcol: 213952.000000
#Effective number of random elements weighted by wcol: 4285334.000000
#Effective number of data elements weighted by wcol*wsys: 213952.000000
#Effective number of random elements weighted by wcol*wsys: 4285334.000000
#Effective redshift value from data 0.597688
#Effective redshift value from randoms 0.596640
#Size of the Box 3700.000000 Mpc/h
#Area of the survey used 2525.000000 deg^2
#Value of alpha: 0.050321
#Normalization using data file
#Normalization using density
#Normalization 4.074057
#Shot noise factor 1.000000
#Shot noise value 5009.909940
#Type of Computation: FFT
#Number of grid cells: 512
#Type of Mass Assigment: TSC
#Type of Yamamoto: GridCenter
#Number of Interlacing steps: 2
#Grid Correction: yes
#Value of Om=0.310000
#Quadrupole as L2
#Octopole as L3
#Hexadecapole as L2L2
#k-centerbin	 k-eff	 Monopole-Pshotnoise	 Dipole	 Quadrupole	 Octopole	 Hexadecapole	 number of modes	 Pshotnoise
0.005000 0.007485 49370.647230 -1261.862194 13478.493362 14760.500994 25285.152692 846 5009.909940
0.015000 0.016072 50331.728764 417.254632 -3694.608653 -2037.358840 -3657.009251 6012 5009.909940
0.025000 0.025646 44600.517833 -179.709544 -4997.538184 -64.278843 -6160.957838 16172 5009.909940
0.035000 0.035469 34475.677316 1497.033373 -4893.905121 -1299.931219 -2299.735643 31764 5009.909940
0.045000 0.045378 24456.917862 76.672552 -120.643882 756.044082 -602.075748 52164 5009.909940
0.055000 0.055280 22216.157743 249.459084 -3929.933830 -317.881297 4078.046985 77396 5009.909940
0.065000 0.065232 20196.477130 79.168481 -1503.896712 449.351657 704.453690 108936 5009.909940
0.075000 0.075229 17160.603208 222.734335 -1641.158582 -231.509213 1644.124412 144980 5009.909940
0.085000 0.085193 15091.734591 269.129680 -614.264209 -308.643793 -866.253827 184854 5009.909940
0.095000 0.095166 12169.084377 222.041128 -380.740491 39.030547 188.237940 232260 5009.909940
0.105000 0.105155 10324.789838 45.382923 -1373.148683 12.576190 -1247.473712 282884 5009.909940
0.115000 0.115131 9909.443857 79.230674 -1827.623903 -85.153898 -1292.706015 339084 5009.909940
0.125000 0.125124 8628.763820 118.842736 -1295.167362 56.013893 -95.907717 401864 5009.909940
0.135000 0.135125 8038.552871 82.851581 -1386.465110 -27.136596 1304.948860 468084 5009.909940
0.145000 0.145120 6827.858422 83.197302 -843.702912 22.148350 219.363502 539940 5009.909940
0.155000 0.155118 6141.914509 108.776807 -1033.241279 -115.940322 574.477050 617324 5009.909940
0.165000 0.165105 5322.071994 74.216959 -1053.596600 34.532177 241.460768 697452 5009.909940
0.175000 0.175088 4690.925701 53.672285 -854.770332 -4.759391 438.307074 785846 5009.909940
0.185000 0.185089 4635.903471 52.160119 -682.711617 -30.686173 7.017552 879528 5009.909940
0.195000 0.195093 4211.969576 20.552251 -778.489733 52.067337 96.481282 976596 5009.909940
0.205000 0.205084 4010.632123 75.268270 -1009.797185 -62.835214 8.676561 1077212 5009.909940
0.215000 0.215076 3590.666070 63.045480 -700.830111 -14.680248 236.584507 1186908 5009.909940
0.225000 0.225076 3275.888562 56.081912 -582.288836 -37.298915 -62.097073 1299452 5009.909940
0.235000 0.235073 3033.565694 43.768141 -641.238512 23.606640 -29.999816 1417356 5009.909940
0.245000 0.245067 2792.513644 56.042170 -776.723800 -3.702191 -15.519088 1539600 5009.909940
0.255000 0.255064 2557.319987 50.145636 -716.422804 -35.424881 -87.649662 1669820 5009.909940
0.265000 0.265061 2375.620961 39.561319 -627.909401 43.315098 164.161253 1801086 5009.909940
0.275000 0.275060 2235.173132 49.492465 -791.107855 -24.381527 376.671098 1942244 5009.909940
0.285000 0.285062 2101.263167 47.088835 -749.708805 -16.657940 325.400676 2084796 5009.909940
0.295000 0.295057 1951.501288 42.084761 -854.491638 1.914760 178.188939 2231868 5009.909940
