#Data file /home/DATA/sbrieden/Patchy_dr12_mocks/postrecon/original/Patchy-Mocks-DR12CMASS-S-V6C-Portsmouth-mass_f0784b1850s10_0017.dat
#Random file /home/DATA/sbrieden/Patchy_dr12_mocks/postrecon/original/Patchy-Mocks-DR12CMASS-S-V6C-Portsmouth-mass_f0784b1850s10_0017.ran
#Number of data elements used: 217302
#Number of random elements used: 4288203
#Effective number of data elements weighted by wcol: 217302.000000
#Effective number of random elements weighted by wcol: 4288203.000000
#Effective number of data elements weighted by wcol*wsys: 217302.000000
#Effective number of random elements weighted by wcol*wsys: 4288203.000000
#Effective redshift value from data 0.596888
#Effective redshift value from randoms 0.597090
#Size of the Box 3700.000000 Mpc/h
#Area of the survey used 2525.000000 deg^2
#Value of alpha: 0.050582
#Normalization using data file
#Normalization using density
#Normalization 4.120360
#Shot noise factor 1.000000
#Shot noise value 4919.491224
#Type of Computation: FFT
#Number of grid cells: 512
#Type of Mass Assigment: TSC
#Type of Yamamoto: GridCenter
#Number of Interlacing steps: 2
#Grid Correction: yes
#Value of Om=0.310000
#Quadrupole as L2
#Octopole as L3
#Hexadecapole as L2L2
#k-centerbin	 k-eff	 Monopole-Pshotnoise	 Dipole	 Quadrupole	 Octopole	 Hexadecapole	 number of modes	 Pshotnoise
0.005000 0.007485 32341.165250 -4821.498070 -18150.966737 -9416.326843 -12964.228745 846 4919.491224
0.015000 0.016072 56548.157360 -450.657326 -11179.664495 -1976.883659 -16798.816131 6012 4919.491224
0.025000 0.025646 43489.209573 149.893871 -13748.474038 360.233509 -114.857723 16172 4919.491224
0.035000 0.035469 33012.466638 845.532638 -4111.105503 -339.925771 6444.002656 31764 4919.491224
0.045000 0.045378 27281.635103 552.338594 -1561.240971 -1733.672314 -2554.582738 52164 4919.491224
0.055000 0.055280 22841.749435 150.879441 -2221.216872 935.084042 -1233.361072 77396 4919.491224
0.065000 0.065232 19501.854348 238.473614 -3139.816930 -589.599313 245.121904 108936 4919.491224
0.075000 0.075229 17732.135690 179.092032 -838.632321 -290.890054 -3033.864366 144980 4919.491224
0.085000 0.085193 14805.332425 254.224465 2.027612 218.137535 -2189.593792 184854 4919.491224
0.095000 0.095166 12121.785617 191.703765 -2061.712727 -11.563666 344.438358 232260 4919.491224
0.105000 0.105155 10178.209129 108.453016 -1195.268592 -38.321365 377.159756 282884 4919.491224
0.115000 0.115131 9245.383115 70.434052 -807.741715 70.777955 814.376395 339084 4919.491224
0.125000 0.125124 8502.661724 81.028972 -1009.345195 -64.995734 543.966818 401864 4919.491224
0.135000 0.135125 7628.328413 106.301667 -544.488124 -82.447585 -47.171571 468084 4919.491224
0.145000 0.145120 6862.980664 72.049850 -1027.119436 82.543565 -419.541400 539940 4919.491224
0.155000 0.155118 5957.653156 77.176154 -886.480565 -76.021047 -515.973490 617324 4919.491224
0.165000 0.165105 5442.782141 77.700276 -945.636751 -16.465435 240.447246 697452 4919.491224
0.175000 0.175088 5085.610984 63.495547 -556.718372 -49.653557 -150.725719 785846 4919.491224
0.185000 0.185089 4571.726051 48.496560 -774.518529 44.421577 75.642400 879528 4919.491224
0.195000 0.195093 4402.067962 58.465911 -974.289857 -30.716128 272.165743 976596 4919.491224
0.205000 0.205084 3929.534360 59.432114 -564.776811 -21.932166 16.531069 1077212 4919.491224
0.215000 0.215076 3648.330970 46.667255 -807.604740 20.594919 -287.831036 1186908 4919.491224
0.225000 0.225076 3253.512690 51.254330 -679.655728 -5.661253 158.109107 1299452 4919.491224
0.235000 0.235073 3001.615462 53.928755 -702.152487 -37.929760 -338.887428 1417356 4919.491224
0.245000 0.245067 2761.579732 54.573202 -708.119409 16.340852 165.250358 1539600 4919.491224
0.255000 0.255064 2681.507581 37.582614 -833.710724 1.966405 127.329555 1669820 4919.491224
0.265000 0.265061 2461.584878 56.827585 -694.260372 -19.488207 108.418049 1801086 4919.491224
0.275000 0.275060 2272.503292 37.259275 -754.263027 9.393480 198.313330 1942244 4919.491224
0.285000 0.285062 2120.762734 45.821099 -771.192561 -19.407702 309.670440 2084796 4919.491224
0.295000 0.295057 1962.459753 57.149935 -599.831131 -24.392760 -54.239642 2231868 4919.491224
