#Data file /home/DATA/sbrieden/Patchy_dr12_mocks/postrecon/original/Patchy-Mocks-DR12LOWZ-N-V5C-Portsmouth-mass_f0693b1850s10_0014.dat
#Random file /home/DATA/sbrieden/Patchy_dr12_mocks/postrecon/original/Patchy-Mocks-DR12LOWZ-N-V5C-Portsmouth-mass_f0693b1850s10_0014.ran
#Number of data elements used: 233640
#Number of random elements used: 4680616
#Effective number of data elements weighted by wcol: 233640.000000
#Effective number of random elements weighted by wcol: 4680616.000000
#Effective number of data elements weighted by wcol*wsys: 233640.000000
#Effective number of random elements weighted by wcol*wsys: 4680616.000000
#Effective redshift value from data 0.330118
#Effective redshift value from randoms 0.330003
#Size of the Box 2500.000000 Mpc/h
#Area of the survey used 5826.000000 deg^2
#Value of alpha: 0.049927
#Normalization using data file
#Normalization using density
#Normalization 4.331180
#Shot noise factor 1.000000
#Shot noise value 3658.070002
#Type of Computation: FFT
#Number of grid cells: 512
#Type of Mass Assigment: TSC
#Type of Yamamoto: GridCenter
#Number of Interlacing steps: 2
#Grid Correction: yes
#Value of Om=0.310000
#Quadrupole as L2
#Octopole as L3
#Hexadecapole as L2L2
#k-centerbin	 k-eff	 Monopole-Pshotnoise	 Dipole	 Quadrupole	 Octopole	 Hexadecapole	 number of modes	 Pshotnoise
0.005000 0.007385 53996.612597 -4622.477415 12923.903641 -11518.448235 -25748.093775 250 3658.070002
0.015000 0.016012 65355.981167 -1605.394911 -10666.123293 8645.655509 20159.903819 1852 3658.070002
0.025000 0.025646 52838.556666 2361.718894 7425.110414 -1579.593854 6945.512360 5020 3658.070002
0.035000 0.035469 41153.247049 1478.598003 -2317.069638 1569.325408 8282.923275 9756 3658.070002
0.045000 0.045368 30967.234030 808.960102 -1486.828466 197.339354 2297.886826 16108 3658.070002
0.055000 0.055314 24528.679367 561.182288 -1644.242031 -560.293086 1608.938737 24064 3658.070002
0.065000 0.065258 22955.994699 176.176188 -1806.418962 -196.099630 1565.794117 33396 3658.070002
0.075000 0.075209 19759.823697 291.923252 -2737.073480 526.119305 -871.996628 44596 3658.070002
0.085000 0.085175 16011.739422 573.925471 -2657.076166 -743.282364 622.164559 57124 3658.070002
0.095000 0.095157 12729.922364 385.816483 -1346.605200 -104.215133 -333.799155 71620 3658.070002
0.105000 0.105162 10827.048816 125.137928 -404.537797 35.662117 486.002971 87552 3658.070002
0.115000 0.115148 9942.388674 99.772239 -649.781369 134.017889 73.489913 104524 3658.070002
0.125000 0.125146 9272.055366 90.252207 -871.208320 -173.547284 -468.878193 124228 3658.070002
0.135000 0.135146 8402.363993 145.298147 12.098948 76.467997 1708.298436 144204 3658.070002
0.145000 0.145132 7477.672066 129.696410 -701.106302 103.035504 45.242190 166492 3658.070002
0.155000 0.155114 6507.691575 126.381930 -1159.717212 -49.127120 192.517029 189964 3658.070002
0.165000 0.165102 5801.078158 104.451247 -827.261500 -47.730253 37.080180 215640 3658.070002
0.175000 0.175105 5159.858188 80.747082 -784.738369 -16.808825 257.980625 242836 3658.070002
0.185000 0.185097 4808.485477 39.972611 -879.600438 34.486897 211.644495 270556 3658.070002
0.195000 0.195085 4378.399217 108.045662 -726.475015 -66.227758 343.357258 301084 3658.070002
0.205000 0.205080 3983.885226 44.750465 -703.433187 -9.035372 497.055890 332628 3658.070002
0.215000 0.215092 3616.921697 48.229200 -879.858085 105.731440 348.924924 367216 3658.070002
0.225000 0.225099 3272.559101 85.025310 -795.992335 -113.652577 339.952081 400444 3658.070002
0.235000 0.235081 3033.171183 38.517874 -685.558790 -26.066826 315.582689 436500 3658.070002
0.245000 0.245077 2806.826178 37.423483 -758.274594 30.328038 118.407553 475900 3658.070002
0.255000 0.255082 2650.311528 48.943296 -789.961506 -27.049989 295.543012 514900 3658.070002
0.265000 0.265074 2405.904572 45.181130 -682.455593 -11.502143 63.648510 555408 3658.070002
0.275000 0.275066 2274.196046 23.795180 -903.468913 10.211033 73.356444 598684 3658.070002
0.285000 0.285066 2145.198322 58.913733 -814.447269 -25.437034 52.661326 643228 3658.070002
0.295000 0.295058 1944.898450 26.352646 -793.498463 14.981333 180.357320 688036 3658.070002
