#Data file /home/DATA/sbrieden/Patchy_dr12_mocks/postrecon/original/Patchy-Mocks-DR12LOWZ-N-V5C-Portsmouth-mass_f0693b1850s10_0063.dat
#Random file /home/DATA/sbrieden/Patchy_dr12_mocks/postrecon/original/Patchy-Mocks-DR12LOWZ-N-V5C-Portsmouth-mass_f0693b1850s10_0063.ran
#Number of data elements used: 233263
#Number of random elements used: 4683249
#Effective number of data elements weighted by wcol: 233263.000000
#Effective number of random elements weighted by wcol: 4683249.000000
#Effective number of data elements weighted by wcol*wsys: 233263.000000
#Effective number of random elements weighted by wcol*wsys: 4683249.000000
#Effective redshift value from data 0.330669
#Effective redshift value from randoms 0.329673
#Size of the Box 2500.000000 Mpc/h
#Area of the survey used 5826.000000 deg^2
#Value of alpha: 0.049948
#Normalization using data file
#Normalization using density
#Normalization 4.329420
#Shot noise factor 1.000000
#Shot noise value 3666.882272
#Type of Computation: FFT
#Number of grid cells: 512
#Type of Mass Assigment: TSC
#Type of Yamamoto: GridCenter
#Number of Interlacing steps: 2
#Grid Correction: yes
#Value of Om=0.310000
#Quadrupole as L2
#Octopole as L3
#Hexadecapole as L2L2
#k-centerbin	 k-eff	 Monopole-Pshotnoise	 Dipole	 Quadrupole	 Octopole	 Hexadecapole	 number of modes	 Pshotnoise
0.005000 0.007385 51467.667475 -10949.317448 -14973.436720 15648.482970 12241.752023 250 3666.882272
0.015000 0.016012 59433.848288 -953.362207 -1382.109304 -7046.063533 -19179.550762 1852 3666.882272
0.025000 0.025646 53121.255738 1749.150574 -1667.725877 -2122.238434 -13031.115439 5020 3666.882272
0.035000 0.035469 38184.773921 2066.766153 -5547.429776 1681.058516 11933.012796 9756 3666.882272
0.045000 0.045368 31875.680737 -108.977755 -5707.903966 -464.882673 1789.904016 16108 3666.882272
0.055000 0.055314 27671.855376 874.530960 -1834.053901 -1999.719900 -2522.020226 24064 3666.882272
0.065000 0.065258 22691.958885 685.147071 3720.439787 338.324184 -676.145183 33396 3666.882272
0.075000 0.075209 19120.378982 130.239336 -436.008945 578.684977 -1538.922346 44596 3666.882272
0.085000 0.085175 15796.188703 411.267298 -2143.779715 -3.919213 621.637686 57124 3666.882272
0.095000 0.095157 13184.349453 303.340455 -595.430771 -189.510042 -1007.779205 71620 3666.882272
0.105000 0.105162 11684.223564 134.617871 -1283.799510 85.302221 390.062558 87552 3666.882272
0.115000 0.115148 10300.627621 219.516313 -1126.354954 -188.782628 273.315146 104524 3666.882272
0.125000 0.125146 9149.247542 95.051080 -1203.120595 130.054142 7.749479 124228 3666.882272
0.135000 0.135146 8509.141109 135.142635 -776.705235 -290.526220 -151.384517 144204 3666.882272
0.145000 0.145132 7455.797174 166.201062 -544.637859 133.319135 -329.766943 166492 3666.882272
0.155000 0.155114 6393.478680 117.111432 -703.398414 -49.441380 -72.657053 189964 3666.882272
0.165000 0.165102 5744.183543 72.858587 -934.304581 14.877242 -23.493075 215640 3666.882272
0.175000 0.175105 5214.953944 79.922285 -762.581024 -11.416806 78.252731 242836 3666.882272
0.185000 0.185097 4861.133652 53.548485 -820.515921 20.463978 409.808899 270556 3666.882272
0.195000 0.195085 4664.941548 55.026788 -716.527868 -61.321424 8.598749 301084 3666.882272
0.205000 0.205080 4094.199067 70.046932 -654.885049 -8.842952 211.095376 332628 3666.882272
0.215000 0.215092 3699.665940 78.636675 -828.848523 10.401294 -84.149725 367216 3666.882272
0.225000 0.225099 3377.906922 39.527277 -859.924139 12.282007 163.821380 400444 3666.882272
0.235000 0.235081 3111.882445 72.965284 -673.677688 -49.722209 247.118890 436500 3666.882272
0.245000 0.245077 2905.118264 36.098360 -821.426845 22.522272 248.505444 475900 3666.882272
0.255000 0.255082 2689.143256 27.188136 -847.877126 19.354948 257.808537 514900 3666.882272
0.265000 0.265074 2569.352670 46.548483 -988.574595 -25.197853 325.548146 555408 3666.882272
0.275000 0.275066 2285.299680 52.425252 -860.849409 -15.556802 170.321728 598684 3666.882272
0.285000 0.285066 2251.164733 37.253584 -827.018522 -26.617650 246.426744 643228 3666.882272
0.295000 0.295058 2009.287908 40.013855 -822.872520 -6.285673 319.263853 688036 3666.882272
