#Data file /home/DATA/sbrieden/Patchy_dr12_mocks/postrecon/original/Patchy-Mocks-DR12CMASS-S-V6C-Portsmouth-mass_f0784b1850s10_0012.dat
#Random file /home/DATA/sbrieden/Patchy_dr12_mocks/postrecon/original/Patchy-Mocks-DR12CMASS-S-V6C-Portsmouth-mass_f0784b1850s10_0012.ran
#Number of data elements used: 213513
#Number of random elements used: 4281952
#Effective number of data elements weighted by wcol: 213513.000000
#Effective number of random elements weighted by wcol: 4281952.000000
#Effective number of data elements weighted by wcol*wsys: 213513.000000
#Effective number of random elements weighted by wcol*wsys: 4281952.000000
#Effective redshift value from data 0.597658
#Effective redshift value from randoms 0.596567
#Size of the Box 3700.000000 Mpc/h
#Area of the survey used 2525.000000 deg^2
#Value of alpha: 0.050220
#Normalization using data file
#Normalization using density
#Normalization 4.066609
#Shot noise factor 1.000000
#Shot noise value 4990.306304
#Type of Computation: FFT
#Number of grid cells: 512
#Type of Mass Assigment: TSC
#Type of Yamamoto: GridCenter
#Number of Interlacing steps: 2
#Grid Correction: yes
#Value of Om=0.310000
#Quadrupole as L2
#Octopole as L3
#Hexadecapole as L2L2
#k-centerbin	 k-eff	 Monopole-Pshotnoise	 Dipole	 Quadrupole	 Octopole	 Hexadecapole	 number of modes	 Pshotnoise
0.005000 0.007485 49242.648454 2858.863631 17268.561386 5611.841580 15589.054100 846 4990.306304
0.015000 0.016072 44297.936523 -1458.152055 4117.050119 2118.822845 -14414.639956 6012 4990.306304
0.025000 0.025646 45054.134757 1247.748938 -7811.658715 -2280.006732 -14147.710222 16172 4990.306304
0.035000 0.035469 31712.032354 205.800668 -2960.730364 1319.979668 5850.063454 31764 4990.306304
0.045000 0.045378 27882.746557 473.363547 -7420.913781 -873.657304 4394.173482 52164 4990.306304
0.055000 0.055280 22591.056225 307.398441 -3281.359115 -835.804247 -2083.617713 77396 4990.306304
0.065000 0.065232 18507.775730 170.459356 -1154.926055 459.952023 -2620.011075 108936 4990.306304
0.075000 0.075229 17757.474713 142.239016 -2208.221829 -304.997888 1382.407227 144980 4990.306304
0.085000 0.085193 14197.618000 267.569797 -1840.069253 71.097532 -611.311531 184854 4990.306304
0.095000 0.095166 12018.100767 153.208685 -1004.648895 95.894701 1395.052356 232260 4990.306304
0.105000 0.105155 10363.490431 164.764141 -1707.442113 -154.262317 435.592956 282884 4990.306304
0.115000 0.115131 9042.400610 65.599453 -1370.776734 -54.280374 -383.729816 339084 4990.306304
0.125000 0.125124 8474.555641 52.469850 -1282.698752 28.445222 18.708145 401864 4990.306304
0.135000 0.135125 7819.726163 100.911316 -1211.782642 -38.920822 -89.098253 468084 4990.306304
0.145000 0.145120 6691.083629 116.344643 -718.241129 -72.917975 -131.920482 539940 4990.306304
0.155000 0.155118 5837.669398 49.764594 -949.397909 50.292691 298.430863 617324 4990.306304
0.165000 0.165105 5313.394652 73.739901 -688.226916 -31.369762 132.955380 697452 4990.306304
0.175000 0.175088 4976.687517 43.875483 -1322.319249 57.532529 208.669116 785846 4990.306304
0.185000 0.185089 4451.608019 68.154626 -880.163176 -77.431749 380.207250 879528 4990.306304
0.195000 0.195093 4249.635867 49.457943 -590.320846 12.309649 447.890486 976596 4990.306304
0.205000 0.205084 3869.895337 69.137004 -485.552706 -29.811589 271.959185 1077212 4990.306304
0.215000 0.215076 3547.895692 33.201424 -609.929244 35.637922 353.610950 1186908 4990.306304
0.225000 0.225076 3330.879814 66.824597 -809.307979 -34.389310 299.511914 1299452 4990.306304
0.235000 0.235073 3009.296937 48.451281 -679.255460 5.047640 78.316201 1417356 4990.306304
0.245000 0.245067 2723.598975 40.879039 -800.104576 25.900398 425.569207 1539600 4990.306304
0.255000 0.255064 2560.101147 57.457626 -883.707766 -67.551002 93.556923 1669820 4990.306304
0.265000 0.265061 2420.676164 43.315008 -665.956595 -5.137621 94.719863 1801086 4990.306304
0.275000 0.275060 2323.902366 47.848124 -687.995271 0.655929 163.906673 1942244 4990.306304
0.285000 0.285062 2102.754247 45.408864 -824.056411 17.646172 508.929284 2084796 4990.306304
0.295000 0.295057 1967.529074 49.500018 -751.663684 -19.662374 411.544393 2231868 4990.306304
