#Data file /home/DATA/sbrieden/Patchy_dr12_mocks/postrecon/original/Patchy-Mocks-DR12LOWZ-S-V5C-Portsmouth-mass_f0693b1850s10_0048.dat
#Random file /home/DATA/sbrieden/Patchy_dr12_mocks/postrecon/original/Patchy-Mocks-DR12LOWZ-S-V5C-Portsmouth-mass_f0693b1850s10_0048.ran
#Number of data elements used: 100750
#Number of random elements used: 2005068
#Effective number of data elements weighted by wcol: 100750.000000
#Effective number of random elements weighted by wcol: 2005068.000000
#Effective number of data elements weighted by wcol*wsys: 100750.000000
#Effective number of random elements weighted by wcol*wsys: 2005068.000000
#Effective redshift value from data 0.330336
#Effective redshift value from randoms 0.330203
#Size of the Box 2500.000000 Mpc/h
#Area of the survey used 2501.000000 deg^2
#Value of alpha: 0.050272
#Normalization using data file
#Normalization using density
#Normalization 1.868450
#Shot noise factor 1.000000
#Shot noise value 3663.874557
#Type of Computation: FFT
#Number of grid cells: 512
#Type of Mass Assigment: TSC
#Type of Yamamoto: GridCenter
#Number of Interlacing steps: 2
#Grid Correction: yes
#Value of Om=0.310000
#Quadrupole as L2
#Octopole as L3
#Hexadecapole as L2L2
#k-centerbin	 k-eff	 Monopole-Pshotnoise	 Dipole	 Quadrupole	 Octopole	 Hexadecapole	 number of modes	 Pshotnoise
0.005000 0.007385 33149.087691 -10806.424760 -21163.957564 11459.232167 19512.736426 250 3663.874557
0.015000 0.016012 47776.305471 1539.173699 -10103.526301 -8028.651376 9259.364003 1852 3663.874557
0.025000 0.025646 43332.839206 291.121635 -8493.359103 3360.634127 -4519.716944 5020 3663.874557
0.035000 0.035469 35361.647428 -97.344750 -14661.148202 -4396.569309 279.928399 9756 3663.874557
0.045000 0.045368 32271.269907 375.205909 -7761.788430 513.437041 -1475.355369 16108 3663.874557
0.055000 0.055314 25036.486853 1085.573590 -5491.394221 -1975.754203 1674.871295 24064 3663.874557
0.065000 0.065258 22479.939698 44.898253 -3251.878309 276.501876 -3868.428946 33396 3663.874557
0.075000 0.075209 19610.138849 623.167041 -2633.490346 -302.537592 368.228438 44596 3663.874557
0.085000 0.085175 15137.761682 201.974573 -2759.568138 374.186725 1991.327044 57124 3663.874557
0.095000 0.095157 13946.231739 340.020234 -1969.510411 -432.941886 931.261994 71620 3663.874557
0.105000 0.105162 11986.717930 280.081214 -219.158898 -2.927854 1588.047280 87552 3663.874557
0.115000 0.115148 10009.546601 203.794117 -846.209387 -262.732382 -149.532907 104524 3663.874557
0.125000 0.125146 8917.637926 -5.467271 -235.917488 63.588305 -880.261303 124228 3663.874557
0.135000 0.135146 8627.672214 139.754473 -1212.719393 16.703724 385.480003 144204 3663.874557
0.145000 0.145132 7624.132005 206.076883 -679.245540 -190.700576 99.019408 166492 3663.874557
0.155000 0.155114 6386.968600 101.192280 -326.120350 126.726013 636.427586 189964 3663.874557
0.165000 0.165102 5809.052192 85.437249 -624.961408 34.020252 147.945220 215640 3663.874557
0.175000 0.175105 5443.164479 48.856130 -760.593189 -18.835461 163.254348 242836 3663.874557
0.185000 0.185097 4942.877665 86.184939 -751.348275 4.432414 451.406209 270556 3663.874557
0.195000 0.195085 4517.457294 34.893463 -664.391038 31.845257 108.722235 301084 3663.874557
0.205000 0.205080 4339.463633 97.814421 -499.073621 -108.188727 518.449443 332628 3663.874557
0.215000 0.215092 3795.012578 53.499881 -480.146308 61.002232 127.649749 367216 3663.874557
0.225000 0.225099 3528.180601 45.882728 -830.980618 14.400125 367.795307 400444 3663.874557
0.235000 0.235081 3065.682078 92.984917 -780.694164 -92.556292 49.084863 436500 3663.874557
0.245000 0.245077 2784.801435 37.566201 -509.201843 59.969181 -64.347811 475900 3663.874557
0.255000 0.255082 2699.880121 29.233498 -721.936722 -28.940219 317.025768 514900 3663.874557
0.265000 0.265074 2526.201242 41.778974 -797.626934 -6.614122 137.890776 555408 3663.874557
0.275000 0.275066 2266.740901 41.911121 -708.390094 34.233212 75.962309 598684 3663.874557
0.285000 0.285066 2131.563271 32.845829 -785.118582 -46.474895 384.778251 643228 3663.874557
0.295000 0.295058 1959.420690 60.926325 -857.518981 -5.879189 109.624339 688036 3663.874557
