#Data file /home/DATA/sbrieden/Patchy_dr12_mocks/postrecon/original/Patchy-Mocks-DR12LOWZ-S-V5C-Portsmouth-mass_f0693b1850s10_0008.dat
#Random file /home/DATA/sbrieden/Patchy_dr12_mocks/postrecon/original/Patchy-Mocks-DR12LOWZ-S-V5C-Portsmouth-mass_f0693b1850s10_0008.ran
#Number of data elements used: 100560
#Number of random elements used: 2005141
#Effective number of data elements weighted by wcol: 100560.000000
#Effective number of random elements weighted by wcol: 2005141.000000
#Effective number of data elements weighted by wcol*wsys: 100560.000000
#Effective number of random elements weighted by wcol*wsys: 2005141.000000
#Effective redshift value from data 0.329924
#Effective redshift value from randoms 0.330164
#Size of the Box 2500.000000 Mpc/h
#Area of the survey used 2501.000000 deg^2
#Value of alpha: 0.050159
#Normalization using data file
#Normalization using density
#Normalization 1.864481
#Shot noise factor 1.000000
#Shot noise value 3657.391307
#Type of Computation: FFT
#Number of grid cells: 512
#Type of Mass Assigment: TSC
#Type of Yamamoto: GridCenter
#Number of Interlacing steps: 2
#Grid Correction: yes
#Value of Om=0.310000
#Quadrupole as L2
#Octopole as L3
#Hexadecapole as L2L2
#k-centerbin	 k-eff	 Monopole-Pshotnoise	 Dipole	 Quadrupole	 Octopole	 Hexadecapole	 number of modes	 Pshotnoise
0.005000 0.007385 44499.342940 8385.125741 -4730.871325 -25690.241469 -35176.056304 250 3657.391307
0.015000 0.016012 57743.772904 -1485.271447 -4305.520147 -4199.771851 -21693.378615 1852 3657.391307
0.025000 0.025646 43577.237603 1459.924767 4356.716730 2009.625856 3131.228480 5020 3657.391307
0.035000 0.035469 43699.912015 668.027623 -12382.736155 -3644.489337 -8113.546962 9756 3657.391307
0.045000 0.045368 31308.864495 1502.253775 -6205.676386 41.772299 -10739.975598 16108 3657.391307
0.055000 0.055314 23390.414585 265.567961 -1031.357095 -1127.566581 -1984.323006 24064 3657.391307
0.065000 0.065258 21989.594499 24.864682 -2111.296848 37.609426 -3387.919629 33396 3657.391307
0.075000 0.075209 19959.514464 473.394838 -1430.763692 431.548358 1298.061524 44596 3657.391307
0.085000 0.085175 15556.773147 375.289719 -2763.149621 -338.516022 104.644593 57124 3657.391307
0.095000 0.095157 13485.426009 141.046423 -4114.212673 -386.421069 -2117.394188 71620 3657.391307
0.105000 0.105162 11789.588568 354.082339 -1932.891717 -97.899202 187.875823 87552 3657.391307
0.115000 0.115148 10342.417281 223.102811 -377.367579 -43.190567 979.365083 104524 3657.391307
0.125000 0.125146 9207.414127 21.655989 -714.458114 -82.087157 734.675159 124228 3657.391307
0.135000 0.135146 8424.141217 210.045527 -858.619661 173.288710 -9.395999 144204 3657.391307
0.145000 0.145132 7007.073935 115.125697 -827.249571 91.967562 929.852980 166492 3657.391307
0.155000 0.155114 6249.434345 95.589388 -1082.198140 -165.595391 532.693547 189964 3657.391307
0.165000 0.165102 5845.204594 86.110070 -1100.299808 -32.033750 -219.509408 215640 3657.391307
0.175000 0.175105 5254.081436 45.572272 -817.246817 12.100319 -39.901144 242836 3657.391307
0.185000 0.185097 4893.692518 91.001071 -816.931588 -92.430073 131.889336 270556 3657.391307
0.195000 0.195085 4451.942776 93.835263 -585.394364 20.406217 -118.756277 301084 3657.391307
0.205000 0.205080 3874.823644 45.519137 -1130.146523 115.981688 319.570246 332628 3657.391307
0.215000 0.215092 3509.023922 70.982984 -1238.827306 -123.207697 34.684542 367216 3657.391307
0.225000 0.225099 3325.390297 45.331830 -832.980686 -23.864467 -164.506174 400444 3657.391307
0.235000 0.235081 3035.724469 30.024348 -826.417384 5.965537 238.263506 436500 3657.391307
0.245000 0.245077 2959.822716 32.941015 -992.747888 39.738942 87.718579 475900 3657.391307
0.255000 0.255082 2749.930874 78.072604 -1033.659612 -39.217348 367.715223 514900 3657.391307
0.265000 0.265074 2458.272501 37.889087 -904.484142 -73.029008 301.527455 555408 3657.391307
0.275000 0.275066 2357.162631 29.736047 -923.577632 38.246074 174.853856 598684 3657.391307
0.285000 0.285066 2142.965643 47.041962 -882.440738 -21.600735 238.304977 643228 3657.391307
0.295000 0.295058 2046.055442 46.679750 -789.806379 -32.960401 151.594250 688036 3657.391307
