#Data file /home/DATA/sbrieden/Patchy_dr12_mocks/postrecon/original/Patchy-Mocks-DR12LOWZ-N-V5C-Portsmouth-mass_f0693b1850s10_0008.dat
#Random file /home/DATA/sbrieden/Patchy_dr12_mocks/postrecon/original/Patchy-Mocks-DR12LOWZ-N-V5C-Portsmouth-mass_f0693b1850s10_0008.ran
#Number of data elements used: 233139
#Number of random elements used: 4679115
#Effective number of data elements weighted by wcol: 233139.000000
#Effective number of random elements weighted by wcol: 4679115.000000
#Effective number of data elements weighted by wcol*wsys: 233139.000000
#Effective number of random elements weighted by wcol*wsys: 4679115.000000
#Effective redshift value from data 0.330230
#Effective redshift value from randoms 0.329807
#Size of the Box 2500.000000 Mpc/h
#Area of the survey used 5826.000000 deg^2
#Value of alpha: 0.049934
#Normalization using data file
#Normalization using density
#Normalization 4.327296
#Shot noise factor 1.000000
#Shot noise value 3662.362769
#Type of Computation: FFT
#Number of grid cells: 512
#Type of Mass Assigment: TSC
#Type of Yamamoto: GridCenter
#Number of Interlacing steps: 2
#Grid Correction: yes
#Value of Om=0.310000
#Quadrupole as L2
#Octopole as L3
#Hexadecapole as L2L2
#k-centerbin	 k-eff	 Monopole-Pshotnoise	 Dipole	 Quadrupole	 Octopole	 Hexadecapole	 number of modes	 Pshotnoise
0.005000 0.007385 54056.131622 -2428.661634 33313.670071 9938.387325 -40941.233101 250 3662.362769
0.015000 0.016012 56662.296198 2317.458932 -5341.615433 1340.261446 13881.298339 1852 3662.362769
0.025000 0.025646 42805.418659 1009.081104 -5500.991194 -2786.652619 -4745.224394 5020 3662.362769
0.035000 0.035469 35772.734222 1026.305635 2216.848525 1381.609820 -1845.530154 9756 3662.362769
0.045000 0.045368 30386.990134 333.621381 -2785.535410 -538.870230 -1008.346919 16108 3662.362769
0.055000 0.055314 28111.251581 242.536920 -3333.025044 -216.491004 -2935.317014 24064 3662.362769
0.065000 0.065258 23302.293672 679.160477 560.736855 -118.341366 1231.088639 33396 3662.362769
0.075000 0.075209 19080.895908 394.349668 -646.404065 418.468120 -596.893512 44596 3662.362769
0.085000 0.085175 15241.508062 452.652297 -2001.718966 -429.536109 243.822336 57124 3662.362769
0.095000 0.095157 13070.811743 310.373032 -2190.481916 -153.045614 -566.055432 71620 3662.362769
0.105000 0.105162 11007.743742 181.248800 -597.209301 -0.111656 613.917420 87552 3662.362769
0.115000 0.115148 10383.587568 43.305646 4.793394 134.953655 796.993337 104524 3662.362769
0.125000 0.125146 9433.777787 121.185686 -656.303916 -49.058187 1367.075972 124228 3662.362769
0.135000 0.135146 8728.690792 129.299557 -828.520775 30.948385 -41.947108 144204 3662.362769
0.145000 0.145132 7435.685537 186.297135 -620.017390 -112.306379 -268.852559 166492 3662.362769
0.155000 0.155114 6482.009103 113.508332 -588.132782 40.005457 533.802909 189964 3662.362769
0.165000 0.165102 5596.041317 85.064929 -673.768604 -38.195876 -255.938343 215640 3662.362769
0.175000 0.175105 5361.699304 72.186124 -957.616035 -33.930253 -207.049708 242836 3662.362769
0.185000 0.185097 4836.976103 52.041302 -816.909330 86.268028 52.438913 270556 3662.362769
0.195000 0.195085 4393.554982 91.106577 -668.492008 -84.279051 262.367193 301084 3662.362769
0.205000 0.205080 4021.442292 40.769355 -549.678073 15.536417 327.457253 332628 3662.362769
0.215000 0.215092 3724.604089 83.546515 -648.395503 -24.811672 135.442448 367216 3662.362769
0.225000 0.225099 3290.320470 48.525373 -789.964353 27.333177 -85.895877 400444 3662.362769
0.235000 0.235081 3013.323018 51.196680 -799.669026 -33.612238 313.246803 436500 3662.362769
0.245000 0.245077 2802.116542 48.840454 -810.909658 20.608226 274.064612 475900 3662.362769
0.255000 0.255082 2701.421069 25.021069 -948.990938 -32.624287 285.790953 514900 3662.362769
0.265000 0.265074 2509.539009 58.089890 -850.869853 16.937743 397.513579 555408 3662.362769
0.275000 0.275066 2237.518507 46.074816 -692.683098 -52.778934 199.446313 598684 3662.362769
0.285000 0.285066 2183.881716 26.926482 -689.014156 40.412815 335.380770 643228 3662.362769
0.295000 0.295058 1998.106256 46.977261 -795.893175 -47.328811 224.179765 688036 3662.362769
