#Data file /home/DATA/sbrieden/Patchy_dr12_mocks/postrecon/original/Patchy-Mocks-DR12LOWZ-N-V5C-Portsmouth-mass_f0693b1850s10_0033.dat
#Random file /home/DATA/sbrieden/Patchy_dr12_mocks/postrecon/original/Patchy-Mocks-DR12LOWZ-N-V5C-Portsmouth-mass_f0693b1850s10_0033.ran
#Number of data elements used: 234349
#Number of random elements used: 4681456
#Effective number of data elements weighted by wcol: 234349.000000
#Effective number of random elements weighted by wcol: 4681456.000000
#Effective number of data elements weighted by wcol*wsys: 234349.000000
#Effective number of random elements weighted by wcol*wsys: 4681456.000000
#Effective redshift value from data 0.330543
#Effective redshift value from randoms 0.329842
#Size of the Box 2500.000000 Mpc/h
#Area of the survey used 5826.000000 deg^2
#Value of alpha: 0.050179
#Normalization using data file
#Normalization using density
#Normalization 4.349513
#Shot noise factor 1.000000
#Shot noise value 3666.421826
#Type of Computation: FFT
#Number of grid cells: 512
#Type of Mass Assigment: TSC
#Type of Yamamoto: GridCenter
#Number of Interlacing steps: 2
#Grid Correction: yes
#Value of Om=0.310000
#Quadrupole as L2
#Octopole as L3
#Hexadecapole as L2L2
#k-centerbin	 k-eff	 Monopole-Pshotnoise	 Dipole	 Quadrupole	 Octopole	 Hexadecapole	 number of modes	 Pshotnoise
0.005000 0.007385 61323.456708 -6743.071838 -18364.760102 -18091.421353 -46269.556087 250 3666.421826
0.015000 0.016012 49187.465839 304.737558 -4501.762364 -5879.950152 -4986.523021 1852 3666.421826
0.025000 0.025646 53684.798385 1362.945841 6915.887556 2666.939336 -2956.326608 5020 3666.421826
0.035000 0.035469 37889.802604 974.511065 -3140.298760 934.100940 801.035890 9756 3666.421826
0.045000 0.045368 28869.635035 865.074422 358.591038 -479.573121 -1195.955144 16108 3666.421826
0.055000 0.055314 24549.292610 446.616274 -1791.345366 -166.387989 -2154.153720 24064 3666.421826
0.065000 0.065258 21872.050657 149.719838 -1338.448750 -567.684269 -2326.510854 33396 3666.421826
0.075000 0.075209 20237.004610 384.167230 -2572.193986 160.293315 405.879837 44596 3666.421826
0.085000 0.085175 16607.563122 407.828409 -1237.678236 39.179274 2226.433877 57124 3666.421826
0.095000 0.095157 13571.968518 392.116837 -1585.762723 -336.544663 793.818541 71620 3666.421826
0.105000 0.105162 11615.488009 89.210570 -1481.732865 11.568260 242.013761 87552 3666.421826
0.115000 0.115148 10583.850890 271.469766 -872.173687 -303.692161 -224.489354 104524 3666.421826
0.125000 0.125146 9502.184517 45.768991 -837.754419 109.535048 -161.068434 124228 3666.421826
0.135000 0.135146 8553.249879 179.562232 -465.907631 -126.402139 31.714769 144204 3666.421826
0.145000 0.145132 7496.857007 114.128123 -617.114597 193.141325 -121.795488 166492 3666.421826
0.155000 0.155114 6520.467892 177.436275 -541.662749 -215.888270 -61.762666 189964 3666.421826
0.165000 0.165102 5621.686797 68.461626 -491.842709 160.186704 7.654729 215640 3666.421826
0.175000 0.175105 5279.783282 40.869317 -570.417412 -130.957100 -106.455820 242836 3666.421826
0.185000 0.185097 5001.451922 86.600700 -671.300208 38.500756 -252.577674 270556 3666.421826
0.195000 0.195085 4510.878655 64.587140 -490.631218 -44.217276 -162.257189 301084 3666.421826
0.205000 0.205080 4137.183656 65.885074 -711.196519 46.356572 84.347549 332628 3666.421826
0.215000 0.215092 3646.180890 84.881009 -670.130515 -67.884807 -36.240547 367216 3666.421826
0.225000 0.225099 3376.160278 35.491106 -600.905562 50.007235 221.197885 400444 3666.421826
0.235000 0.235081 3134.786395 65.129803 -641.966617 -19.407800 250.065100 436500 3666.421826
0.245000 0.245077 2857.218576 43.830871 -570.702710 -16.461158 336.649581 475900 3666.421826
0.255000 0.255082 2703.324064 31.565468 -797.044883 47.634218 301.667973 514900 3666.421826
0.265000 0.265074 2490.169948 54.390949 -874.966117 -25.077107 247.153219 555408 3666.421826
0.275000 0.275066 2266.511876 37.131329 -741.715784 -9.577515 239.003417 598684 3666.421826
0.285000 0.285066 2177.532916 23.657958 -898.331468 7.505337 252.779516 643228 3666.421826
0.295000 0.295058 2000.935913 55.845445 -831.382684 -52.654320 83.894445 688036 3666.421826
