#Data file /home/DATA/sbrieden/Patchy_dr12_mocks/postrecon/original/Patchy-Mocks-DR12CMASS-N-V6C-Portsmouth-mass_f0784b1850s10_0039.dat
#Random file /home/DATA/sbrieden/Patchy_dr12_mocks/postrecon/original/Patchy-Mocks-DR12CMASS-N-V6C-Portsmouth-mass_f0784b1850s10_0039.ran
#Number of data elements used: 589010
#Number of random elements used: 11771844
#Effective number of data elements weighted by wcol: 589010.000000
#Effective number of random elements weighted by wcol: 11771844.000000
#Effective number of data elements weighted by wcol*wsys: 589010.000000
#Effective number of random elements weighted by wcol*wsys: 11771844.000000
#Effective redshift value from data 0.597715
#Effective redshift value from randoms 0.597750
#Size of the Box 3700.000000 Mpc/h
#Area of the survey used 6851.000000 deg^2
#Value of alpha: 0.050111
#Normalization using data file
#Normalization using density
#Normalization 11.074434
#Shot noise factor 1.000000
#Shot noise value 4961.367985
#Type of Computation: FFT
#Number of grid cells: 512
#Type of Mass Assigment: TSC
#Type of Yamamoto: GridCenter
#Number of Interlacing steps: 2
#Grid Correction: yes
#Value of Om=0.310000
#Quadrupole as L2
#Octopole as L3
#Hexadecapole as L2L2
#k-centerbin	 k-eff	 Monopole-Pshotnoise	 Dipole	 Quadrupole	 Octopole	 Hexadecapole	 number of modes	 Pshotnoise
0.005000 0.007485 33281.079427 -5162.328625 -6568.223723 5512.193250 10168.869256 846 4961.367985
0.015000 0.016072 50978.106851 -88.760519 -23607.929441 -2702.798496 -3298.187467 6012 4961.367985
0.025000 0.025646 46406.182297 323.480515 -10726.706560 -664.468259 8204.525731 16172 4961.367985
0.035000 0.035469 33804.700255 971.004853 -2014.361261 -827.355894 3859.201977 31764 4961.367985
0.045000 0.045378 27186.476542 191.378536 -3679.893621 382.076992 675.668215 52164 4961.367985
0.055000 0.055280 22825.014120 249.782039 -2642.947169 -535.152854 -921.588371 77396 4961.367985
0.065000 0.065232 20608.182321 280.856287 -1627.139878 -89.752437 175.843421 108936 4961.367985
0.075000 0.075229 18047.850163 171.349370 -2472.953178 173.372109 -326.990405 144980 4961.367985
0.085000 0.085193 14458.718190 258.762901 -2105.081798 -212.702425 301.481288 184854 4961.367985
0.095000 0.095166 12263.753354 111.606165 -755.108167 80.898726 734.045676 232260 4961.367985
0.105000 0.105155 10673.282678 191.278418 -605.399877 -170.859501 9.596759 282884 4961.367985
0.115000 0.115131 9308.522456 70.313752 -748.981610 88.554158 -482.104430 339084 4961.367985
0.125000 0.125124 8824.154812 75.645992 -918.475906 -135.103083 -80.482321 401864 4961.367985
0.135000 0.135125 8129.420072 88.947812 -615.680870 104.770189 -49.434435 468084 4961.367985
0.145000 0.145120 7061.903533 103.110789 -499.114875 -67.086054 427.023026 539940 4961.367985
0.155000 0.155118 6142.673872 89.157363 -492.761792 -10.453756 -226.085941 617324 4961.367985
0.165000 0.165105 5457.901525 58.648007 -351.594461 8.758341 209.624100 697452 4961.367985
0.175000 0.175088 5083.363233 61.658685 -517.835453 -1.135942 -114.751283 785846 4961.367985
0.185000 0.185089 4663.287238 58.581395 -518.662326 -34.548430 -120.351784 879528 4961.367985
0.195000 0.195093 4439.666198 40.547585 -613.885536 40.602679 -46.327453 976596 4961.367985
0.205000 0.205084 3976.277426 76.308443 -783.938803 -15.785707 148.363161 1077212 4961.367985
0.215000 0.215076 3621.298856 53.448732 -538.688872 -45.724856 211.409054 1186908 4961.367985
0.225000 0.225076 3341.351812 47.521639 -578.049390 41.155848 53.409940 1299452 4961.367985
0.235000 0.235073 3060.119147 47.426542 -571.543649 -21.113253 166.107481 1417356 4961.367985
0.245000 0.245067 2900.628840 53.690912 -632.911911 -11.466738 236.120330 1539600 4961.367985
0.255000 0.255064 2669.879182 44.568097 -661.233775 6.930561 198.771585 1669820 4961.367985
0.265000 0.265061 2474.282400 47.460358 -615.548464 -3.320135 230.615349 1801086 4961.367985
0.275000 0.275060 2340.642964 48.311169 -818.169183 -6.307642 312.430739 1942244 4961.367985
0.285000 0.285062 2191.922152 47.387516 -623.713855 -15.631581 176.304597 2084796 4961.367985
0.295000 0.295057 2040.859776 48.028232 -694.963008 -0.401834 111.075952 2231868 4961.367985
