#Data file /home/DATA/sbrieden/Patchy_dr12_mocks/postrecon/original/Patchy-Mocks-DR12LOWZ-S-V5C-Portsmouth-mass_f0693b1850s10_0018.dat
#Random file /home/DATA/sbrieden/Patchy_dr12_mocks/postrecon/original/Patchy-Mocks-DR12LOWZ-S-V5C-Portsmouth-mass_f0693b1850s10_0018.ran
#Number of data elements used: 101408
#Number of random elements used: 2004391
#Effective number of data elements weighted by wcol: 101408.000000
#Effective number of random elements weighted by wcol: 2004391.000000
#Effective number of data elements weighted by wcol*wsys: 101408.000000
#Effective number of random elements weighted by wcol*wsys: 2004391.000000
#Effective redshift value from data 0.330245
#Effective redshift value from randoms 0.330144
#Size of the Box 2500.000000 Mpc/h
#Area of the survey used 2501.000000 deg^2
#Value of alpha: 0.050625
#Normalization using data file
#Normalization using density
#Normalization 1.880732
#Shot noise factor 1.000000
#Shot noise value 3661.890091
#Type of Computation: FFT
#Number of grid cells: 512
#Type of Mass Assigment: TSC
#Type of Yamamoto: GridCenter
#Number of Interlacing steps: 2
#Grid Correction: yes
#Value of Om=0.310000
#Quadrupole as L2
#Octopole as L3
#Hexadecapole as L2L2
#k-centerbin	 k-eff	 Monopole-Pshotnoise	 Dipole	 Quadrupole	 Octopole	 Hexadecapole	 number of modes	 Pshotnoise
0.005000 0.007385 40659.273951 -13771.255630 -31123.683656 -952.635046 -851.812187 250 3661.890091
0.015000 0.016012 48263.847412 502.014673 -27170.837587 -12960.898976 -14212.916868 1852 3661.890091
0.025000 0.025646 41600.514757 1280.907626 -8049.275251 -3162.335813 -22152.035112 5020 3661.890091
0.035000 0.035469 37813.737652 1189.695144 2053.556158 -1941.614896 7935.250804 9756 3661.890091
0.045000 0.045368 27622.408609 296.417513 1648.928310 2121.905986 1772.011247 16108 3661.890091
0.055000 0.055314 24281.721517 156.789019 -4260.988528 -867.002679 815.601844 24064 3661.890091
0.065000 0.065258 24249.379777 459.828259 -2216.646247 -352.804780 447.105705 33396 3661.890091
0.075000 0.075209 19417.908691 276.524195 -26.092877 -134.920944 -836.289530 44596 3661.890091
0.085000 0.085175 17166.966568 462.803033 -439.971280 207.438948 -1623.002365 57124 3661.890091
0.095000 0.095157 12620.890128 479.161180 -790.441715 -299.582828 -373.938774 71620 3661.890091
0.105000 0.105162 11098.369344 64.127027 -1195.820268 248.855592 -37.462341 87552 3661.890091
0.115000 0.115148 10496.761794 201.416068 -509.893773 -485.727039 -625.649545 104524 3661.890091
0.125000 0.125146 9351.748079 36.816205 -814.026780 224.586843 -1651.646908 124228 3661.890091
0.135000 0.135146 8084.114204 220.699708 -816.314166 -25.553311 -343.086823 144204 3661.890091
0.145000 0.145132 7648.497944 20.907386 -1191.649849 217.340109 -4.317074 166492 3661.890091
0.155000 0.155114 6760.412199 154.450081 -1010.374139 -212.973293 423.478726 189964 3661.890091
0.165000 0.165102 5884.039407 151.333224 -713.173470 -145.419699 -829.194718 215640 3661.890091
0.175000 0.175105 5269.073638 63.608007 -606.382256 100.015301 -178.835799 242836 3661.890091
0.185000 0.185097 4655.030872 92.107925 -170.978276 -155.634314 -54.505228 270556 3661.890091
0.195000 0.195085 4647.484109 6.913744 -600.055701 137.445621 -807.767372 301084 3661.890091
0.205000 0.205080 4100.538599 102.860459 -992.216624 -112.992232 -559.030876 332628 3661.890091
0.215000 0.215092 3671.808146 63.104347 -557.244773 39.395969 -127.737405 367216 3661.890091
0.225000 0.225099 3348.260404 42.955586 -548.621669 3.710969 330.076298 400444 3661.890091
0.235000 0.235081 3110.589318 31.557041 -509.330058 20.288132 338.387451 436500 3661.890091
0.245000 0.245077 2867.323332 69.975096 -716.045022 -47.899256 131.724339 475900 3661.890091
0.255000 0.255082 2745.682729 33.636451 -621.790087 73.153858 226.124175 514900 3661.890091
0.265000 0.265074 2532.971748 52.489194 -828.893670 -22.850784 554.523026 555408 3661.890091
0.275000 0.275066 2353.738449 23.573231 -773.175047 -17.657010 401.584269 598684 3661.890091
0.285000 0.285066 2257.717605 56.694023 -893.588570 -40.323653 358.294962 643228 3661.890091
0.295000 0.295058 2011.997129 29.407153 -653.394357 -21.487900 -80.059266 688036 3661.890091
