#Data file /home/DATA/sbrieden/Patchy_dr12_mocks/postrecon/original/Patchy-Mocks-DR12CMASS-S-V6C-Portsmouth-mass_f0784b1850s10_0059.dat
#Random file /home/DATA/sbrieden/Patchy_dr12_mocks/postrecon/original/Patchy-Mocks-DR12CMASS-S-V6C-Portsmouth-mass_f0784b1850s10_0059.ran
#Number of data elements used: 216530
#Number of random elements used: 4282671
#Effective number of data elements weighted by wcol: 216530.000000
#Effective number of random elements weighted by wcol: 4282671.000000
#Effective number of data elements weighted by wcol*wsys: 216530.000000
#Effective number of random elements weighted by wcol*wsys: 4282671.000000
#Effective redshift value from data 0.596959
#Effective redshift value from randoms 0.597028
#Size of the Box 3700.000000 Mpc/h
#Area of the survey used 2525.000000 deg^2
#Value of alpha: 0.050708
#Normalization using data file
#Normalization using density
#Normalization 4.116269
#Shot noise factor 1.000000
#Shot noise value 4962.600760
#Type of Computation: FFT
#Number of grid cells: 512
#Type of Mass Assigment: TSC
#Type of Yamamoto: GridCenter
#Number of Interlacing steps: 2
#Grid Correction: yes
#Value of Om=0.310000
#Quadrupole as L2
#Octopole as L3
#Hexadecapole as L2L2
#k-centerbin	 k-eff	 Monopole-Pshotnoise	 Dipole	 Quadrupole	 Octopole	 Hexadecapole	 number of modes	 Pshotnoise
0.005000 0.007485 42922.598541 -2897.884291 -21362.434544 -10678.120700 -20076.531154 846 4962.600760
0.015000 0.016072 50042.037068 57.074127 -18084.921925 -1049.188678 11879.678199 6012 4962.600760
0.025000 0.025646 44384.634435 734.623980 -7499.124927 -2030.031194 13089.386758 16172 4962.600760
0.035000 0.035469 32219.520087 730.546387 2370.965275 150.491660 -1069.776165 31764 4962.600760
0.045000 0.045378 26948.528165 327.209532 3845.512907 132.078046 -2616.253995 52164 4962.600760
0.055000 0.055280 23599.969520 156.267780 -2364.943006 172.704644 -2471.964081 77396 4962.600760
0.065000 0.065232 19603.750386 271.599991 -3524.624481 -251.256198 -1736.714959 108936 4962.600760
0.075000 0.075229 17644.830738 192.517895 -1883.137830 -73.478022 1977.105143 144980 4962.600760
0.085000 0.085193 14913.394450 207.914744 -1420.102882 -76.654980 -439.941801 184854 4962.600760
0.095000 0.095166 12327.046807 194.268057 -1225.399635 199.599165 404.458158 232260 4962.600760
0.105000 0.105155 10311.834893 94.552855 -1319.186407 -111.750168 504.028719 282884 4962.600760
0.115000 0.115131 9261.445703 97.518803 -1273.928251 8.229537 457.486835 339084 4962.600760
0.125000 0.125124 8339.957411 120.079221 -1778.394233 -48.454401 553.809062 401864 4962.600760
0.135000 0.135125 7410.459068 49.435034 -973.015661 -12.563485 64.985395 468084 4962.600760
0.145000 0.145120 6981.851834 100.338144 -1210.802735 -54.951409 -199.274946 539940 4962.600760
0.155000 0.155118 6044.354237 72.056939 -795.285526 -15.708460 212.530867 617324 4962.600760
0.165000 0.165105 5465.421660 69.805831 -1000.176801 -6.164308 10.649653 697452 4962.600760
0.175000 0.175088 4967.083719 82.939555 -627.398730 -101.019283 406.072599 785846 4962.600760
0.185000 0.185089 4723.247530 24.277925 -625.961477 49.578100 138.964551 879528 4962.600760
0.195000 0.195093 4460.745081 76.253074 -742.202802 -13.618789 -18.418444 976596 4962.600760
0.205000 0.205084 3970.312696 62.436085 -685.414610 -7.268699 394.727204 1077212 4962.600760
0.215000 0.215076 3568.102567 45.318555 -465.458888 -21.204893 -1.412467 1186908 4962.600760
0.225000 0.225076 3353.028833 50.714505 -644.562862 22.391676 150.278513 1299452 4962.600760
0.235000 0.235073 3049.785708 55.349237 -490.668003 -13.209945 37.492118 1417356 4962.600760
0.245000 0.245067 2785.796527 49.343823 -611.365912 10.613016 367.252117 1539600 4962.600760
0.255000 0.255064 2608.507937 44.373681 -728.304453 -9.722467 23.372235 1669820 4962.600760
0.265000 0.265061 2403.985785 48.920000 -728.895647 -25.323294 116.790940 1801086 4962.600760
0.275000 0.275060 2223.974440 45.840677 -532.395751 18.998079 66.639843 1942244 4962.600760
0.285000 0.285062 2103.702101 49.725668 -819.677043 -21.092934 284.989996 2084796 4962.600760
0.295000 0.295057 1984.104542 33.973902 -728.676678 8.717603 262.719779 2231868 4962.600760
