#Data file /home/DATA/sbrieden/Patchy_dr12_mocks/postrecon/original/Patchy-Mocks-DR12CMASS-S-V6C-Portsmouth-mass_f0784b1850s10_0070.dat
#Random file /home/DATA/sbrieden/Patchy_dr12_mocks/postrecon/original/Patchy-Mocks-DR12CMASS-S-V6C-Portsmouth-mass_f0784b1850s10_0070.ran
#Number of data elements used: 214797
#Number of random elements used: 4290458
#Effective number of data elements weighted by wcol: 214797.000000
#Effective number of random elements weighted by wcol: 4290458.000000
#Effective number of data elements weighted by wcol*wsys: 214797.000000
#Effective number of random elements weighted by wcol*wsys: 4290458.000000
#Effective redshift value from data 0.596914
#Effective redshift value from randoms 0.596899
#Size of the Box 3700.000000 Mpc/h
#Area of the survey used 2525.000000 deg^2
#Value of alpha: 0.050244
#Normalization using data file
#Normalization using density
#Normalization 4.087794
#Shot noise factor 1.000000
#Shot noise value 4950.716440
#Type of Computation: FFT
#Number of grid cells: 512
#Type of Mass Assigment: TSC
#Type of Yamamoto: GridCenter
#Number of Interlacing steps: 2
#Grid Correction: yes
#Value of Om=0.310000
#Quadrupole as L2
#Octopole as L3
#Hexadecapole as L2L2
#k-centerbin	 k-eff	 Monopole-Pshotnoise	 Dipole	 Quadrupole	 Octopole	 Hexadecapole	 number of modes	 Pshotnoise
0.005000 0.007485 39944.533477 -2403.401007 -13218.204144 -10649.090390 -14861.140854 846 4950.716440
0.015000 0.016072 50922.267160 518.805326 22028.288208 5880.015939 -4512.065435 6012 4950.716440
0.025000 0.025646 40490.767565 909.126961 -3824.520653 -1253.820822 -1182.776025 16172 4950.716440
0.035000 0.035469 35220.729381 -192.198735 -8726.985313 224.453116 -5240.584370 31764 4950.716440
0.045000 0.045378 27743.313582 800.429395 -4024.472178 -931.889206 -414.307194 52164 4950.716440
0.055000 0.055280 22432.754853 234.317206 -1576.697180 -327.523172 -1702.243403 77396 4950.716440
0.065000 0.065232 20129.261625 238.528671 -2814.226797 11.878880 -3160.912098 108936 4950.716440
0.075000 0.075229 16639.277515 194.588639 -2228.358964 -37.327635 952.674347 144980 4950.716440
0.085000 0.085193 14509.032668 173.277661 -2093.068383 56.765382 -746.347620 184854 4950.716440
0.095000 0.095166 11620.877607 246.772881 -715.038453 -180.665461 1598.650531 232260 4950.716440
0.105000 0.105155 9913.486972 99.399671 -253.934475 55.946921 302.594475 282884 4950.716440
0.115000 0.115131 9125.569664 65.135934 -2068.752956 -115.328466 -236.367027 339084 4950.716440
0.125000 0.125124 8389.840349 70.641650 -1374.350240 34.035438 -515.483943 401864 4950.716440
0.135000 0.135125 7680.073707 76.614233 -989.674374 36.287224 715.514659 468084 4950.716440
0.145000 0.145120 7057.453920 86.804451 -866.871463 -15.069448 737.218806 539940 4950.716440
0.155000 0.155118 6063.100733 95.417647 -1058.700237 -50.874233 541.659294 617324 4950.716440
0.165000 0.165105 5333.928515 78.449941 -695.605449 -41.386308 -94.029488 697452 4950.716440
0.175000 0.175088 5017.471198 34.778760 -520.782406 9.212111 -291.641260 785846 4950.716440
0.185000 0.185089 4641.867396 58.755878 -878.998729 35.032231 326.158805 879528 4950.716440
0.195000 0.195093 4338.427725 73.842361 -807.700119 -68.309225 -98.080254 976596 4950.716440
0.205000 0.205084 3942.701472 39.944148 -445.128317 -18.801997 204.989559 1077212 4950.716440
0.215000 0.215076 3569.061204 70.033641 -514.600592 -28.875683 -10.323569 1186908 4950.716440
0.225000 0.225076 3267.300731 47.780107 -521.028901 37.718010 159.335016 1299452 4950.716440
0.235000 0.235073 3004.379498 33.393756 -684.597018 22.326004 53.419544 1417356 4950.716440
0.245000 0.245067 2783.631773 74.688319 -818.936092 -56.605175 155.556421 1539600 4950.716440
0.255000 0.255064 2476.431814 48.567269 -667.669197 44.481272 262.432497 1669820 4950.716440
0.265000 0.265061 2357.001985 31.032896 -840.043914 -29.407180 210.696285 1801086 4950.716440
0.275000 0.275060 2234.964501 52.263169 -797.051291 7.425306 267.244656 1942244 4950.716440
0.285000 0.285062 2102.285430 45.174325 -670.016169 -25.034291 478.581414 2084796 4950.716440
0.295000 0.295057 1903.694794 48.847134 -767.151098 7.652260 197.152863 2231868 4950.716440
