#Data file /home/DATA/sbrieden/Patchy_dr12_mocks/postrecon/original/Patchy-Mocks-DR12CMASS-S-V6C-Portsmouth-mass_f0784b1850s10_0053.dat
#Random file /home/DATA/sbrieden/Patchy_dr12_mocks/postrecon/original/Patchy-Mocks-DR12CMASS-S-V6C-Portsmouth-mass_f0784b1850s10_0053.ran
#Number of data elements used: 217436
#Number of random elements used: 4286016
#Effective number of data elements weighted by wcol: 217436.000000
#Effective number of random elements weighted by wcol: 4286016.000000
#Effective number of data elements weighted by wcol*wsys: 217436.000000
#Effective number of random elements weighted by wcol*wsys: 4286016.000000
#Effective redshift value from data 0.596939
#Effective redshift value from randoms 0.596926
#Size of the Box 3700.000000 Mpc/h
#Area of the survey used 2525.000000 deg^2
#Value of alpha: 0.050895
#Normalization using data file
#Normalization using density
#Normalization 4.138546
#Shot noise factor 1.000000
#Shot noise value 4947.517029
#Type of Computation: FFT
#Number of grid cells: 512
#Type of Mass Assigment: TSC
#Type of Yamamoto: GridCenter
#Number of Interlacing steps: 2
#Grid Correction: yes
#Value of Om=0.310000
#Quadrupole as L2
#Octopole as L3
#Hexadecapole as L2L2
#k-centerbin	 k-eff	 Monopole-Pshotnoise	 Dipole	 Quadrupole	 Octopole	 Hexadecapole	 number of modes	 Pshotnoise
0.005000 0.007485 36541.405746 -2117.050381 -5166.001846 -623.717368 -2395.444630 846 4947.517029
0.015000 0.016072 42092.730621 -446.643132 -15964.612452 -27.922577 19246.002514 6012 4947.517029
0.025000 0.025646 42642.240005 87.668148 -6977.466611 -1593.298962 -2413.737555 16172 4947.517029
0.035000 0.035469 34594.992575 981.603360 71.090657 -553.778366 1430.377265 31764 4947.517029
0.045000 0.045378 26482.747506 224.201425 -998.256037 311.560875 -3964.296461 52164 4947.517029
0.055000 0.055280 23017.369076 236.252102 -3667.110004 -49.654750 -20.033097 77396 4947.517029
0.065000 0.065232 20754.722983 232.814037 -2645.062140 -218.372304 -368.905092 108936 4947.517029
0.075000 0.075229 17599.265608 258.979386 -1314.141062 -68.347946 400.426956 144980 4947.517029
0.085000 0.085193 14525.849095 120.518659 -2253.500558 89.075771 992.692678 184854 4947.517029
0.095000 0.095166 12596.201046 227.904838 -1036.146536 -187.735435 -426.167589 232260 4947.517029
0.105000 0.105155 10301.306420 159.249665 -895.757053 40.663035 661.436108 282884 4947.517029
0.115000 0.115131 9264.780990 111.495133 -702.259476 -156.203694 -359.465543 339084 4947.517029
0.125000 0.125124 8273.197319 31.636727 -1106.886758 165.445399 18.110663 401864 4947.517029
0.135000 0.135125 7732.665686 74.204697 -769.221780 -127.696334 -46.710195 468084 4947.517029
0.145000 0.145120 7071.355039 105.273970 -682.965153 63.050991 146.985477 539940 4947.517029
0.155000 0.155118 6050.888955 94.393688 -686.117895 -57.961045 147.595812 617324 4947.517029
0.165000 0.165105 5268.581159 58.606049 -610.056342 7.980462 -117.539675 697452 4947.517029
0.175000 0.175088 4943.474677 56.281727 -718.890730 -5.511862 -282.851125 785846 4947.517029
0.185000 0.185089 4629.799851 62.381654 -635.046228 -49.369247 -133.041581 879528 4947.517029
0.195000 0.195093 4194.953775 49.688796 -609.260856 63.094537 355.487750 976596 4947.517029
0.205000 0.205084 3928.641746 58.475883 -647.637008 -33.585599 662.146975 1077212 4947.517029
0.215000 0.215076 3580.944223 62.539715 -627.137219 -37.713431 323.614067 1186908 4947.517029
0.225000 0.225076 3222.172683 42.109822 -634.105204 43.063251 134.685613 1299452 4947.517029
0.235000 0.235073 3036.498369 52.691254 -580.738594 -46.908186 118.486539 1417356 4947.517029
0.245000 0.245067 2815.810421 55.126125 -739.242429 -11.984081 -74.228198 1539600 4947.517029
0.255000 0.255064 2597.024010 44.438829 -673.412884 -1.055798 -42.985441 1669820 4947.517029
0.265000 0.265061 2392.575222 39.146777 -737.399779 25.916721 210.349951 1801086 4947.517029
0.275000 0.275060 2289.111540 47.838262 -766.682627 -0.749324 278.802120 1942244 4947.517029
0.285000 0.285062 2070.430129 50.707770 -675.582879 -15.449086 385.305111 2084796 4947.517029
0.295000 0.295057 1907.077113 48.338049 -864.628999 -8.622385 325.753361 2231868 4947.517029
