#Data file /home/DATA/sbrieden/Patchy_dr12_mocks/postrecon/original/Patchy-Mocks-DR12LOWZ-N-V5C-Portsmouth-mass_f0693b1850s10_0058.dat
#Random file /home/DATA/sbrieden/Patchy_dr12_mocks/postrecon/original/Patchy-Mocks-DR12LOWZ-N-V5C-Portsmouth-mass_f0693b1850s10_0058.ran
#Number of data elements used: 235594
#Number of random elements used: 4680015
#Effective number of data elements weighted by wcol: 235594.000000
#Effective number of random elements weighted by wcol: 4680015.000000
#Effective number of data elements weighted by wcol*wsys: 235594.000000
#Effective number of random elements weighted by wcol*wsys: 4680015.000000
#Effective redshift value from data 0.330342
#Effective redshift value from randoms 0.329829
#Size of the Box 2500.000000 Mpc/h
#Area of the survey used 5826.000000 deg^2
#Value of alpha: 0.050459
#Normalization using data file
#Normalization using density
#Normalization 4.372628
#Shot noise factor 1.000000
#Shot noise value 3666.937760
#Type of Computation: FFT
#Number of grid cells: 512
#Type of Mass Assigment: TSC
#Type of Yamamoto: GridCenter
#Number of Interlacing steps: 2
#Grid Correction: yes
#Value of Om=0.310000
#Quadrupole as L2
#Octopole as L3
#Hexadecapole as L2L2
#k-centerbin	 k-eff	 Monopole-Pshotnoise	 Dipole	 Quadrupole	 Octopole	 Hexadecapole	 number of modes	 Pshotnoise
0.005000 0.007385 40265.690773 -370.526444 -2831.568975 -14775.640364 -33435.633151 250 3666.937760
0.015000 0.016012 53455.710240 968.424121 -6170.280054 -1908.127066 16804.090631 1852 3666.937760
0.025000 0.025646 51185.552538 359.899421 -907.122901 3147.611348 1811.274309 5020 3666.937760
0.035000 0.035469 39701.517525 685.818050 -4068.068594 -1715.533683 -151.041768 9756 3666.937760
0.045000 0.045368 33310.060721 990.315861 3609.357203 -189.377295 -1028.515570 16108 3666.937760
0.055000 0.055314 25943.223276 592.776320 3074.833210 1214.212985 2191.339098 24064 3666.937760
0.065000 0.065258 21454.128863 617.714605 -1429.594789 -450.826723 -808.876570 33396 3666.937760
0.075000 0.075209 18236.922184 316.005425 -63.234579 -229.505968 -1374.826189 44596 3666.937760
0.085000 0.085175 16320.040213 247.334233 -498.446162 460.842521 31.907004 57124 3666.937760
0.095000 0.095157 13395.967713 374.064784 -1513.905747 -131.582801 2155.439041 71620 3666.937760
0.105000 0.105162 11505.097005 169.084677 -782.898343 -110.498119 480.567164 87552 3666.937760
0.115000 0.115148 10217.054784 83.006253 -640.224506 72.691534 423.767007 104524 3666.937760
0.125000 0.125146 9468.995916 116.675124 -1176.936205 -69.356219 725.905579 124228 3666.937760
0.135000 0.135146 8725.188001 199.345955 -839.081525 41.417750 -174.303389 144204 3666.937760
0.145000 0.145132 7312.731632 129.602901 -1230.285416 -157.772404 36.445174 166492 3666.937760
0.155000 0.155114 6382.207647 157.484117 -463.534711 -30.455546 123.453670 189964 3666.937760
0.165000 0.165102 5811.459752 44.436523 -650.868264 9.608120 -194.505444 215640 3666.937760
0.175000 0.175105 5247.187056 76.032546 -651.606856 16.151752 -26.042982 242836 3666.937760
0.185000 0.185097 4795.282284 66.346630 -771.019205 25.671192 422.475050 270556 3666.937760
0.195000 0.195085 4485.795967 78.841017 -697.740308 -69.140184 269.273336 301084 3666.937760
0.205000 0.205080 4129.537495 50.146560 -791.242662 55.046420 237.685339 332628 3666.937760
0.215000 0.215092 3699.143909 40.251992 -739.547732 12.639470 327.907959 367216 3666.937760
0.225000 0.225099 3445.341598 73.055283 -987.379124 -13.363677 265.375898 400444 3666.937760
0.235000 0.235081 3064.698477 73.179673 -739.418749 -49.788040 185.335633 436500 3666.937760
0.245000 0.245077 2845.353040 44.429127 -800.039700 -43.443604 286.529539 475900 3666.937760
0.255000 0.255082 2638.382764 43.379353 -573.520286 27.492145 150.616061 514900 3666.937760
0.265000 0.265074 2424.591767 37.249621 -803.312384 17.840615 368.226576 555408 3666.937760
0.275000 0.275066 2261.833588 54.433924 -711.415655 -46.362887 269.129111 598684 3666.937760
0.285000 0.285066 2114.030690 40.144930 -755.974739 8.845158 131.906804 643228 3666.937760
0.295000 0.295058 1910.285146 28.721168 -804.891319 29.052756 315.094114 688036 3666.937760
