#Data file /home/DATA/sbrieden/Patchy_dr12_mocks/postrecon/original/Patchy-Mocks-DR12CMASS-S-V6C-Portsmouth-mass_f0784b1850s10_0032.dat
#Random file /home/DATA/sbrieden/Patchy_dr12_mocks/postrecon/original/Patchy-Mocks-DR12CMASS-S-V6C-Portsmouth-mass_f0784b1850s10_0032.ran
#Number of data elements used: 215837
#Number of random elements used: 4282777
#Effective number of data elements weighted by wcol: 215837.000000
#Effective number of random elements weighted by wcol: 4282777.000000
#Effective number of data elements weighted by wcol*wsys: 215837.000000
#Effective number of random elements weighted by wcol*wsys: 4282777.000000
#Effective redshift value from data 0.596828
#Effective redshift value from randoms 0.597255
#Size of the Box 3700.000000 Mpc/h
#Area of the survey used 2525.000000 deg^2
#Value of alpha: 0.050343
#Normalization using data file
#Normalization using density
#Normalization 4.095379
#Shot noise factor 1.000000
#Shot noise value 4934.599121
#Type of Computation: FFT
#Number of grid cells: 512
#Type of Mass Assigment: TSC
#Type of Yamamoto: GridCenter
#Number of Interlacing steps: 2
#Grid Correction: yes
#Value of Om=0.310000
#Quadrupole as L2
#Octopole as L3
#Hexadecapole as L2L2
#k-centerbin	 k-eff	 Monopole-Pshotnoise	 Dipole	 Quadrupole	 Octopole	 Hexadecapole	 number of modes	 Pshotnoise
0.005000 0.007485 41194.694517 -6124.271350 -27350.799695 3580.886190 16996.811708 846 4934.599121
0.015000 0.016072 52607.317412 492.465716 -6695.781500 -8318.462843 -13840.351359 6012 4934.599121
0.025000 0.025646 43880.513333 648.592157 6032.886860 820.092577 -25394.508085 16172 4934.599121
0.035000 0.035469 36166.478233 348.274707 -4352.164512 532.449784 4243.564368 31764 4934.599121
0.045000 0.045378 29149.696881 668.345717 -1429.675017 -1047.129294 -4062.909101 52164 4934.599121
0.055000 0.055280 24101.841829 137.448547 -1580.434096 291.185994 -1730.730469 77396 4934.599121
0.065000 0.065232 19593.129592 298.745977 -1615.544736 56.458661 1305.543025 108936 4934.599121
0.075000 0.075229 16975.453388 231.407271 -377.450088 53.466569 -541.571180 144980 4934.599121
0.085000 0.085193 14165.999571 197.431699 -922.178851 -119.139596 1274.174245 184854 4934.599121
0.095000 0.095166 11968.830028 163.434266 -711.297683 51.609144 -295.985083 232260 4934.599121
0.105000 0.105155 10424.152929 112.926913 -1866.388515 135.591267 1219.423653 282884 4934.599121
0.115000 0.115131 9141.206295 117.392733 -2409.535985 -194.749254 1101.758627 339084 4934.599121
0.125000 0.125124 8690.139657 91.139594 -939.050136 -45.035473 1111.376136 401864 4934.599121
0.135000 0.135125 7626.304142 51.882611 -890.985014 40.387552 264.392117 468084 4934.599121
0.145000 0.145120 6954.832304 88.769799 -563.161468 -35.128739 1160.610510 539940 4934.599121
0.155000 0.155118 6272.192105 69.963855 -1249.116859 40.002394 474.423508 617324 4934.599121
0.165000 0.165105 5519.520029 99.209612 -670.165658 -125.483117 294.921333 697452 4934.599121
0.175000 0.175088 4956.632988 53.860642 -495.325275 69.410807 221.075819 785846 4934.599121
0.185000 0.185089 4613.137397 37.363694 -612.634209 -57.892635 -160.631768 879528 4934.599121
0.195000 0.195093 4357.229953 70.467114 -527.662857 18.008914 -171.989790 976596 4934.599121
0.205000 0.205084 3882.131451 51.458886 -271.279197 50.934298 343.883248 1077212 4934.599121
0.215000 0.215076 3583.239076 52.110669 -900.489347 1.061385 667.187352 1186908 4934.599121
0.225000 0.225076 3347.791003 58.813765 -915.238225 -57.485776 206.497971 1299452 4934.599121
0.235000 0.235073 2996.460532 48.793687 -713.485625 10.007457 286.724356 1417356 4934.599121
0.245000 0.245067 2799.305014 54.433846 -661.647817 -18.824536 119.962730 1539600 4934.599121
0.255000 0.255064 2602.181267 44.798203 -731.397508 0.870097 307.441969 1669820 4934.599121
0.265000 0.265061 2425.406499 35.658138 -984.979946 27.347871 348.956579 1801086 4934.599121
0.275000 0.275060 2230.094143 58.644648 -855.933459 -21.070386 284.959502 1942244 4934.599121
0.285000 0.285062 2073.690424 43.684884 -821.634699 -17.780201 303.531726 2084796 4934.599121
0.295000 0.295057 1938.018815 44.247463 -826.734941 -19.089481 376.591658 2231868 4934.599121
