#Data file /home/DATA/sbrieden/Patchy_dr12_mocks/postrecon/original/Patchy-Mocks-DR12CMASS-N-V6C-Portsmouth-mass_f0784b1850s10_0084.dat
#Random file /home/DATA/sbrieden/Patchy_dr12_mocks/postrecon/original/Patchy-Mocks-DR12CMASS-N-V6C-Portsmouth-mass_f0784b1850s10_0084.ran
#Number of data elements used: 582649
#Number of random elements used: 11771492
#Effective number of data elements weighted by wcol: 582649.000000
#Effective number of random elements weighted by wcol: 11771492.000000
#Effective number of data elements weighted by wcol*wsys: 582649.000000
#Effective number of random elements weighted by wcol*wsys: 11771492.000000
#Effective redshift value from data 0.597939
#Effective redshift value from randoms 0.597667
#Size of the Box 3700.000000 Mpc/h
#Area of the survey used 6851.000000 deg^2
#Value of alpha: 0.049660
#Normalization using data file
#Normalization using density
#Normalization 10.963074
#Shot noise factor 1.000000
#Shot noise value 4980.893809
#Type of Computation: FFT
#Number of grid cells: 512
#Type of Mass Assigment: TSC
#Type of Yamamoto: GridCenter
#Number of Interlacing steps: 2
#Grid Correction: yes
#Value of Om=0.310000
#Quadrupole as L2
#Octopole as L3
#Hexadecapole as L2L2
#k-centerbin	 k-eff	 Monopole-Pshotnoise	 Dipole	 Quadrupole	 Octopole	 Hexadecapole	 number of modes	 Pshotnoise
0.005000 0.007485 33576.135390 -2835.465482 -7782.534817 1310.523122 3820.534734 846 4980.893809
0.015000 0.016072 55655.117489 -546.266351 -22322.195242 -3770.797337 9700.543598 6012 4980.893809
0.025000 0.025646 42578.606166 672.738082 -7235.848426 101.908665 2678.677512 16172 4980.893809
0.035000 0.035469 36115.188007 633.999720 -6074.629437 -429.384016 3638.162110 31764 4980.893809
0.045000 0.045378 28808.870811 375.048251 -1693.620015 42.138158 2927.100929 52164 4980.893809
0.055000 0.055280 24722.503570 247.002288 -2918.814401 55.816670 148.765504 77396 4980.893809
0.065000 0.065232 20684.718737 306.952459 -3642.303570 -402.154329 1549.793017 108936 4980.893809
0.075000 0.075229 17188.274047 202.626231 -1770.266486 12.513444 -944.297578 144980 4980.893809
0.085000 0.085193 14770.871340 250.082215 -1961.523203 -168.758929 -500.142828 184854 4980.893809
0.095000 0.095166 12230.295134 145.428414 -1266.215221 -8.923840 -487.986640 232260 4980.893809
0.105000 0.105155 10470.090780 127.942642 -910.976996 10.475502 324.720561 282884 4980.893809
0.115000 0.115131 9360.776855 90.063507 -1248.770823 5.977832 195.351631 339084 4980.893809
0.125000 0.125124 8625.637068 83.924525 -1019.182467 -130.995722 -384.635101 401864 4980.893809
0.135000 0.135125 8070.541390 88.328023 -922.368938 43.686024 -94.161697 468084 4980.893809
0.145000 0.145120 7146.079505 96.697902 -1171.994669 -25.755657 406.308932 539940 4980.893809
0.155000 0.155118 6134.903142 81.900072 -542.550370 2.483006 51.011511 617324 4980.893809
0.165000 0.165105 5504.616185 65.996594 -631.302583 -4.351121 296.705965 697452 4980.893809
0.175000 0.175088 5063.155249 46.928566 -686.892952 3.261068 443.162378 785846 4980.893809
0.185000 0.185089 4801.823562 60.668805 -630.092770 -52.132924 -56.108913 879528 4980.893809
0.195000 0.195093 4381.325005 66.058824 -661.576467 18.569260 81.769557 976596 4980.893809
0.205000 0.205084 3963.255983 60.394517 -642.752803 -40.768787 22.271189 1077212 4980.893809
0.215000 0.215076 3583.784418 59.929957 -588.532179 2.944622 215.727663 1186908 4980.893809
0.225000 0.225076 3241.270224 42.752127 -724.238618 11.770554 -64.286140 1299452 4980.893809
0.235000 0.235073 3085.297377 48.687286 -549.584912 -15.614453 14.141056 1417356 4980.893809
0.245000 0.245067 2850.320234 59.692619 -504.321249 -7.179615 149.834850 1539600 4980.893809
0.255000 0.255064 2705.818254 32.242391 -689.451197 6.301632 122.095715 1669820 4980.893809
0.265000 0.265061 2534.803766 52.021253 -663.928316 3.604746 110.959656 1801086 4980.893809
0.275000 0.275060 2287.244193 52.028698 -650.602829 -11.698724 176.219044 1942244 4980.893809
0.285000 0.285062 2131.822087 47.675351 -655.370768 -9.198693 207.769532 2084796 4980.893809
0.295000 0.295057 2053.683748 43.090190 -742.867562 -10.764672 24.680136 2231868 4980.893809
