#Data file /home/DATA/sbrieden/Patchy_dr12_mocks/postrecon/original/Patchy-Mocks-DR12LOWZ-N-V5C-Portsmouth-mass_f0693b1850s10_0023.dat
#Random file /home/DATA/sbrieden/Patchy_dr12_mocks/postrecon/original/Patchy-Mocks-DR12LOWZ-N-V5C-Portsmouth-mass_f0693b1850s10_0023.ran
#Number of data elements used: 232252
#Number of random elements used: 4681600
#Effective number of data elements weighted by wcol: 232252.000000
#Effective number of random elements weighted by wcol: 4681600.000000
#Effective number of data elements weighted by wcol*wsys: 232252.000000
#Effective number of random elements weighted by wcol*wsys: 4681600.000000
#Effective redshift value from data 0.330214
#Effective redshift value from randoms 0.329921
#Size of the Box 2500.000000 Mpc/h
#Area of the survey used 5826.000000 deg^2
#Value of alpha: 0.049689
#Normalization using data file
#Normalization using density
#Normalization 4.308671
#Shot noise factor 1.000000
#Shot noise value 3660.645625
#Type of Computation: FFT
#Number of grid cells: 512
#Type of Mass Assigment: TSC
#Type of Yamamoto: GridCenter
#Number of Interlacing steps: 2
#Grid Correction: yes
#Value of Om=0.310000
#Quadrupole as L2
#Octopole as L3
#Hexadecapole as L2L2
#k-centerbin	 k-eff	 Monopole-Pshotnoise	 Dipole	 Quadrupole	 Octopole	 Hexadecapole	 number of modes	 Pshotnoise
0.005000 0.007385 33794.151180 -4147.890969 18039.244715 3038.500786 -5166.360466 250 3660.645625
0.015000 0.016012 55958.576294 729.094617 23688.622208 2717.516793 3418.267385 1852 3660.645625
0.025000 0.025646 45630.523688 1579.919818 2994.893747 415.931001 -19206.134429 5020 3660.645625
0.035000 0.035469 36607.090059 500.518736 -3636.301664 602.247177 -6046.387978 9756 3660.645625
0.045000 0.045368 30359.299544 779.562447 -2382.690520 -659.961059 -2054.914979 16108 3660.645625
0.055000 0.055314 25820.822862 60.933541 -1632.974153 444.700187 1330.109853 24064 3660.645625
0.065000 0.065258 22808.207172 661.211825 -2806.726072 -360.700143 -1855.276836 33396 3660.645625
0.075000 0.075209 19175.815391 542.417592 -966.744578 -583.346710 -1355.025504 44596 3660.645625
0.085000 0.085175 16494.863226 212.428708 -2019.946919 364.731736 241.949023 57124 3660.645625
0.095000 0.095157 13248.381996 413.814973 -1068.944270 -331.663621 1020.826667 71620 3660.645625
0.105000 0.105162 11855.951597 75.573493 -1155.933282 204.978454 -540.727507 87552 3660.645625
0.115000 0.115148 9834.785898 255.314211 -613.831437 -357.989399 -164.895401 104524 3660.645625
0.125000 0.125146 9240.898746 46.968735 -595.995357 163.252837 -115.404507 124228 3660.645625
0.135000 0.135146 8358.549576 165.413118 -670.837347 -12.407451 47.299610 144204 3660.645625
0.145000 0.145132 7397.182739 77.309271 -696.255478 16.265597 52.457402 166492 3660.645625
0.155000 0.155114 6548.986560 154.536409 -540.616867 -73.351009 -299.881264 189964 3660.645625
0.165000 0.165102 5705.478647 128.510136 -572.053973 22.504163 147.893737 215640 3660.645625
0.175000 0.175105 5210.855006 23.722569 -616.848387 37.219135 23.507491 242836 3660.645625
0.185000 0.185097 4803.425828 52.720371 -797.919205 14.065093 565.304096 270556 3660.645625
0.195000 0.195085 4599.928977 96.523201 -577.839524 -77.951087 404.798892 301084 3660.645625
0.205000 0.205080 4019.225450 87.221952 -508.154681 2.895630 126.965871 332628 3660.645625
0.215000 0.215092 3706.643660 38.641925 -725.474275 -1.820152 302.293996 367216 3660.645625
0.225000 0.225099 3400.048325 71.066176 -663.847117 -54.118930 86.439144 400444 3660.645625
0.235000 0.235081 3063.014409 38.021666 -738.130893 78.599843 254.905990 436500 3660.645625
0.245000 0.245077 2868.426552 35.831015 -942.855054 -14.988167 -137.837885 475900 3660.645625
0.255000 0.255082 2714.593920 44.031345 -828.407020 -26.876224 310.014637 514900 3660.645625
0.265000 0.265074 2486.280131 45.800554 -844.666489 33.699676 289.578661 555408 3660.645625
0.275000 0.275066 2270.147496 49.671447 -746.266715 -65.567996 333.938458 598684 3660.645625
0.285000 0.285066 2074.716474 43.577120 -842.710256 20.329207 97.283140 643228 3660.645625
0.295000 0.295058 1990.023116 33.895001 -869.463887 -12.025484 127.382941 688036 3660.645625
