#Data file /home/DATA/sbrieden/Patchy_dr12_mocks/postrecon/original/Patchy-Mocks-DR12CMASS-S-V6C-Portsmouth-mass_f0784b1850s10_0014.dat
#Random file /home/DATA/sbrieden/Patchy_dr12_mocks/postrecon/original/Patchy-Mocks-DR12CMASS-S-V6C-Portsmouth-mass_f0784b1850s10_0014.ran
#Number of data elements used: 215384
#Number of random elements used: 4280920
#Effective number of data elements weighted by wcol: 215384.000000
#Effective number of random elements weighted by wcol: 4280920.000000
#Effective number of data elements weighted by wcol*wsys: 215384.000000
#Effective number of random elements weighted by wcol*wsys: 4280920.000000
#Effective redshift value from data 0.596888
#Effective redshift value from randoms 0.597037
#Size of the Box 3700.000000 Mpc/h
#Area of the survey used 2525.000000 deg^2
#Value of alpha: 0.050335
#Normalization using data file
#Normalization using density
#Normalization 4.089581
#Shot noise factor 1.000000
#Shot noise value 4941.186493
#Type of Computation: FFT
#Number of grid cells: 512
#Type of Mass Assigment: TSC
#Type of Yamamoto: GridCenter
#Number of Interlacing steps: 2
#Grid Correction: yes
#Value of Om=0.310000
#Quadrupole as L2
#Octopole as L3
#Hexadecapole as L2L2
#k-centerbin	 k-eff	 Monopole-Pshotnoise	 Dipole	 Quadrupole	 Octopole	 Hexadecapole	 number of modes	 Pshotnoise
0.005000 0.007485 58833.007812 340.058756 5181.918753 -16705.831100 -36167.136108 846 4941.186493
0.015000 0.016072 61302.884340 -1027.011941 501.869010 4334.672308 -12060.729109 6012 4941.186493
0.025000 0.025646 47278.280755 1719.853076 -6097.640638 -2108.434016 11397.668305 16172 4941.186493
0.035000 0.035469 35784.110052 632.607443 1073.268665 1042.994535 2520.424064 31764 4941.186493
0.045000 0.045378 28088.877747 307.478500 -3787.620590 -188.376674 2732.607940 52164 4941.186493
0.055000 0.055280 22311.608190 308.394913 -2340.556781 461.280827 3280.062168 77396 4941.186493
0.065000 0.065232 20258.320006 211.219215 -3496.512937 -679.130831 -6.212456 108936 4941.186493
0.075000 0.075229 17833.821935 145.761471 -1301.728349 128.683043 -42.873191 144980 4941.186493
0.085000 0.085193 14988.867818 255.366133 -3494.690771 -44.315943 234.593801 184854 4941.186493
0.095000 0.095166 12600.278767 180.875034 -2358.158223 -145.782894 620.564991 232260 4941.186493
0.105000 0.105155 10371.729994 151.306828 -528.790896 -37.341934 101.168521 282884 4941.186493
0.115000 0.115131 8995.606534 125.453649 -547.499033 -65.949501 100.866958 339084 4941.186493
0.125000 0.125124 8690.048075 39.758550 -838.009800 29.736901 377.019947 401864 4941.186493
0.135000 0.135125 7586.366008 94.650934 -1020.721662 12.445564 -20.529100 468084 4941.186493
0.145000 0.145120 6758.271884 100.756006 -881.030679 -18.100738 -38.366156 539940 4941.186493
0.155000 0.155118 5854.354601 72.216843 -610.972622 11.322138 214.271617 617324 4941.186493
0.165000 0.165105 5436.824430 80.951114 -647.730982 -20.868979 841.396964 697452 4941.186493
0.175000 0.175088 4865.852947 38.002976 -800.103057 21.204587 244.597288 785846 4941.186493
0.185000 0.185089 4658.615784 48.468812 -828.912365 -27.354566 220.738988 879528 4941.186493
0.195000 0.195093 4401.311395 62.348723 -614.153715 -60.244101 -36.958657 976596 4941.186493
0.205000 0.205084 3975.343782 54.758366 -508.911362 62.702129 228.288803 1077212 4941.186493
0.215000 0.215076 3509.526694 61.777009 -694.934579 -33.074674 115.149863 1186908 4941.186493
0.225000 0.225076 3249.564363 51.317441 -749.054357 -2.210713 -123.840913 1299452 4941.186493
0.235000 0.235073 2983.736906 45.579660 -751.865546 10.157601 232.290703 1417356 4941.186493
0.245000 0.245067 2774.151325 51.968608 -647.351661 -14.462540 238.702669 1539600 4941.186493
0.255000 0.255064 2593.317105 40.847504 -890.792348 -12.337039 179.746613 1669820 4941.186493
0.265000 0.265061 2439.678650 52.555143 -772.829933 -20.842349 63.014628 1801086 4941.186493
0.275000 0.275060 2215.353273 50.542930 -882.857307 8.433465 253.890009 1942244 4941.186493
0.285000 0.285062 2110.197160 38.907272 -910.976115 -3.795729 354.712338 2084796 4941.186493
0.295000 0.295057 1961.761918 53.028944 -802.733371 -10.843774 304.105247 2231868 4941.186493
