#Data file /home/DATA/sbrieden/Patchy_dr12_mocks/postrecon/original/Patchy-Mocks-DR12LOWZ-N-V5C-Portsmouth-mass_f0693b1850s10_0045.dat
#Random file /home/DATA/sbrieden/Patchy_dr12_mocks/postrecon/original/Patchy-Mocks-DR12LOWZ-N-V5C-Portsmouth-mass_f0693b1850s10_0045.ran
#Number of data elements used: 233850
#Number of random elements used: 4678313
#Effective number of data elements weighted by wcol: 233850.000000
#Effective number of random elements weighted by wcol: 4678313.000000
#Effective number of data elements weighted by wcol*wsys: 233850.000000
#Effective number of random elements weighted by wcol*wsys: 4678313.000000
#Effective redshift value from data 0.330201
#Effective redshift value from randoms 0.329965
#Size of the Box 2500.000000 Mpc/h
#Area of the survey used 5826.000000 deg^2
#Value of alpha: 0.050023
#Normalization using data file
#Normalization using density
#Normalization 4.335878
#Shot noise factor 1.000000
#Shot noise value 3659.978497
#Type of Computation: FFT
#Number of grid cells: 512
#Type of Mass Assigment: TSC
#Type of Yamamoto: GridCenter
#Number of Interlacing steps: 2
#Grid Correction: yes
#Value of Om=0.310000
#Quadrupole as L2
#Octopole as L3
#Hexadecapole as L2L2
#k-centerbin	 k-eff	 Monopole-Pshotnoise	 Dipole	 Quadrupole	 Octopole	 Hexadecapole	 number of modes	 Pshotnoise
0.005000 0.007385 36237.902749 -12726.210144 -9397.733557 -13529.428075 7353.924302 250 3659.978497
0.015000 0.016012 70520.390069 2168.428607 -6464.613583 3187.152762 132.830829 1852 3659.978497
0.025000 0.025646 47684.626727 2512.999804 14537.655710 -2245.489413 -7209.391954 5020 3659.978497
0.035000 0.035469 38363.906483 126.243056 -3188.468179 848.049671 -3802.996732 9756 3659.978497
0.045000 0.045368 31679.903105 1616.529387 -2640.215627 -1564.142272 -7014.974988 16108 3659.978497
0.055000 0.055314 25091.189059 -73.012849 1611.021423 676.984555 -1578.883497 24064 3659.978497
0.065000 0.065258 23146.283052 456.556161 74.957585 260.753187 718.489599 33396 3659.978497
0.075000 0.075209 19659.691376 434.904819 -2006.006512 8.293892 -11.612478 44596 3659.978497
0.085000 0.085175 16342.040627 366.007327 -1202.044536 -545.349233 893.678790 57124 3659.978497
0.095000 0.095157 13631.068057 401.108545 -187.079655 148.849761 -923.820335 71620 3659.978497
0.105000 0.105162 11504.687900 178.878504 -740.963066 270.574742 -560.077194 87552 3659.978497
0.115000 0.115148 9739.465007 192.574863 -1334.399525 -129.344904 906.388108 104524 3659.978497
0.125000 0.125146 9031.329273 37.782647 -938.911616 -71.046786 1007.887944 124228 3659.978497
0.135000 0.135146 8577.753050 167.117907 -295.108057 31.360564 1056.143231 144204 3659.978497
0.145000 0.145132 7433.185455 190.893136 -458.432901 -114.462891 -98.746684 166492 3659.978497
0.155000 0.155114 6278.347075 31.518372 -826.138476 76.551481 -153.510714 189964 3659.978497
0.165000 0.165102 5742.709816 114.762242 -860.714645 2.043183 261.180032 215640 3659.978497
0.175000 0.175105 5207.025981 113.483660 -606.330846 -103.468698 200.858330 242836 3659.978497
0.185000 0.185097 4742.723537 37.527950 -248.745197 27.638090 307.913795 270556 3659.978497
0.195000 0.195085 4465.881699 72.694822 -582.634434 -41.015702 88.340842 301084 3659.978497
0.205000 0.205080 4040.570362 57.384997 -344.502844 20.547249 144.690210 332628 3659.978497
0.215000 0.215092 3656.273943 77.402053 -480.280100 -4.002984 7.821967 367216 3659.978497
0.225000 0.225099 3344.946975 26.860200 -577.609539 41.941503 160.785328 400444 3659.978497
0.235000 0.235081 3093.821441 56.396020 -810.634106 33.245022 424.592806 436500 3659.978497
0.245000 0.245077 2786.396438 69.579009 -822.280835 -61.329390 451.300603 475900 3659.978497
0.255000 0.255082 2629.504717 12.210803 -822.344999 3.289111 245.341969 514900 3659.978497
0.265000 0.265074 2485.546983 40.171877 -770.064844 7.154232 76.004194 555408 3659.978497
0.275000 0.275066 2287.752462 62.926292 -835.971454 -36.038235 168.643529 598684 3659.978497
0.285000 0.285066 2119.965702 31.452187 -851.625484 12.832470 199.370644 643228 3659.978497
0.295000 0.295058 1981.265909 42.289615 -752.647173 -40.393669 146.695308 688036 3659.978497
