#Data file /home/DATA/sbrieden/Patchy_dr12_mocks/postrecon/original/Patchy-Mocks-DR12CMASS-N-V6C-Portsmouth-mass_f0784b1850s10_0045.dat
#Random file /home/DATA/sbrieden/Patchy_dr12_mocks/postrecon/original/Patchy-Mocks-DR12CMASS-N-V6C-Portsmouth-mass_f0784b1850s10_0045.ran
#Number of data elements used: 585674
#Number of random elements used: 11773507
#Effective number of data elements weighted by wcol: 585674.000000
#Effective number of random elements weighted by wcol: 11773507.000000
#Effective number of data elements weighted by wcol*wsys: 585674.000000
#Effective number of random elements weighted by wcol*wsys: 11773507.000000
#Effective redshift value from data 0.597866
#Effective redshift value from randoms 0.597836
#Size of the Box 3700.000000 Mpc/h
#Area of the survey used 6851.000000 deg^2
#Value of alpha: 0.049739
#Normalization using data file
#Normalization using density
#Normalization 10.998199
#Shot noise factor 1.000000
#Shot noise value 4957.576119
#Type of Computation: FFT
#Number of grid cells: 512
#Type of Mass Assigment: TSC
#Type of Yamamoto: GridCenter
#Number of Interlacing steps: 2
#Grid Correction: yes
#Value of Om=0.310000
#Quadrupole as L2
#Octopole as L3
#Hexadecapole as L2L2
#k-centerbin	 k-eff	 Monopole-Pshotnoise	 Dipole	 Quadrupole	 Octopole	 Hexadecapole	 number of modes	 Pshotnoise
0.005000 0.007485 48072.399277 -1825.361017 -13019.587506 -8613.919729 -9676.957118 846 4957.576119
0.015000 0.016072 48294.235005 782.351082 -8942.528794 -61.423807 -1068.581579 6012 4957.576119
0.025000 0.025646 45019.808838 146.640965 -7002.262546 -220.355979 10255.999033 16172 4957.576119
0.035000 0.035469 34021.176126 925.445432 1317.551728 -179.349101 104.794005 31764 4957.576119
0.045000 0.045378 25712.482493 215.795872 -2352.866846 724.435730 4288.424186 52164 4957.576119
0.055000 0.055280 22948.658017 172.563223 -2377.340938 -463.354761 -239.388945 77396 4957.576119
0.065000 0.065232 21561.673172 256.671263 -2355.892436 -196.220146 741.334274 108936 4957.576119
0.075000 0.075229 17944.993652 265.553770 -1616.217235 120.449385 78.275878 144980 4957.576119
0.085000 0.085193 14650.154196 189.574412 -1462.468261 -96.873687 794.372050 184854 4957.576119
0.095000 0.095166 12512.964569 169.752540 -1430.105727 -42.847780 -343.226395 232260 4957.576119
0.105000 0.105155 10572.273471 165.638728 -1002.187701 -84.613685 -265.898938 282884 4957.576119
0.115000 0.115131 9374.115947 57.844466 -924.814408 19.196565 -373.423682 339084 4957.576119
0.125000 0.125124 8769.796737 69.199224 -807.690001 65.539946 245.896067 401864 4957.576119
0.135000 0.135125 7886.533890 101.362469 -1280.088149 -20.715768 328.530954 468084 4957.576119
0.145000 0.145120 7065.900692 80.860763 -1046.912258 -99.921388 -166.325557 539940 4957.576119
0.155000 0.155118 6229.039309 97.451792 -839.179281 15.376182 212.447335 617324 4957.576119
0.165000 0.165105 5562.322469 66.631610 -730.193342 -24.979852 88.646650 697452 4957.576119
0.175000 0.175088 5011.486413 60.904250 -436.300901 -20.552715 -81.189282 785846 4957.576119
0.185000 0.185089 4702.184506 61.884848 -759.879742 -10.377156 181.405925 879528 4957.576119
0.195000 0.195093 4310.820377 61.728557 -640.250737 12.167741 253.175530 976596 4957.576119
0.205000 0.205084 3938.747792 41.841246 -667.075815 -20.898945 89.747958 1077212 4957.576119
0.215000 0.215076 3628.500743 56.097697 -705.652030 31.604886 -16.259791 1186908 4957.576119
0.225000 0.225076 3225.542270 56.574146 -692.666124 -25.109222 113.592714 1299452 4957.576119
0.235000 0.235073 3032.753162 50.192081 -650.564135 -11.645822 284.186686 1417356 4957.576119
0.245000 0.245067 2826.985770 45.857077 -565.186327 -3.447286 243.865604 1539600 4957.576119
0.255000 0.255064 2642.598136 50.933904 -768.394065 4.840694 361.186452 1669820 4957.576119
0.265000 0.265061 2433.056303 57.339474 -755.549335 -15.385982 418.225087 1801086 4957.576119
0.275000 0.275060 2256.345559 34.954030 -739.252931 1.381139 245.075323 1942244 4957.576119
0.285000 0.285062 2154.703509 50.915451 -831.399647 -3.040973 306.127868 2084796 4957.576119
0.295000 0.295057 2017.903059 41.525360 -861.812576 -19.170273 295.290508 2231868 4957.576119
