#Data file /home/DATA/sbrieden/Patchy_dr12_mocks/postrecon/original/Patchy-Mocks-DR12LOWZ-N-V5C-Portsmouth-mass_f0693b1850s10_0077.dat
#Random file /home/DATA/sbrieden/Patchy_dr12_mocks/postrecon/original/Patchy-Mocks-DR12LOWZ-N-V5C-Portsmouth-mass_f0693b1850s10_0077.ran
#Number of data elements used: 235233
#Number of random elements used: 4676886
#Effective number of data elements weighted by wcol: 235233.000000
#Effective number of random elements weighted by wcol: 4676886.000000
#Effective number of data elements weighted by wcol*wsys: 235233.000000
#Effective number of random elements weighted by wcol*wsys: 4676886.000000
#Effective redshift value from data 0.330228
#Effective redshift value from randoms 0.329878
#Size of the Box 2500.000000 Mpc/h
#Area of the survey used 5826.000000 deg^2
#Value of alpha: 0.050312
#Normalization using data file
#Normalization using density
#Normalization 4.360429
#Shot noise factor 1.000000
#Shot noise value 3656.217395
#Type of Computation: FFT
#Number of grid cells: 512
#Type of Mass Assigment: TSC
#Type of Yamamoto: GridCenter
#Number of Interlacing steps: 2
#Grid Correction: yes
#Value of Om=0.310000
#Quadrupole as L2
#Octopole as L3
#Hexadecapole as L2L2
#k-centerbin	 k-eff	 Monopole-Pshotnoise	 Dipole	 Quadrupole	 Octopole	 Hexadecapole	 number of modes	 Pshotnoise
0.005000 0.007385 98903.461417 2206.265880 -28872.772151 -27795.976000 -33304.892719 250 3656.217395
0.015000 0.016012 58724.154443 -180.301903 2971.345198 101.877446 14928.381071 1852 3656.217395
0.025000 0.025646 50061.056320 2084.710715 -1191.639297 -1732.497122 -9355.324955 5020 3656.217395
0.035000 0.035469 39779.307143 2047.706902 -3736.783053 -2695.024304 -10631.294607 9756 3656.217395
0.045000 0.045368 30244.450333 323.186750 -2518.873795 -322.952305 -9419.053427 16108 3656.217395
0.055000 0.055314 26875.674574 584.511339 -3415.473161 -473.425311 -5066.646730 24064 3656.217395
0.065000 0.065258 21794.597163 497.006078 612.367725 -259.744290 -2306.856328 33396 3656.217395
0.075000 0.075209 19686.222733 106.616968 -1470.763966 493.999732 178.996958 44596 3656.217395
0.085000 0.085175 17097.409710 336.778295 -1700.863601 128.974491 230.631155 57124 3656.217395
0.095000 0.095157 13898.706125 410.043439 -883.526769 -240.484105 356.518439 71620 3656.217395
0.105000 0.105162 11364.010409 208.348974 -736.999004 -28.654986 208.371745 87552 3656.217395
0.115000 0.115148 10316.205821 145.173052 -837.167464 12.486967 -587.203300 104524 3656.217395
0.125000 0.125146 9379.551860 203.142948 -963.560521 28.287939 898.270204 124228 3656.217395
0.135000 0.135146 8237.336229 104.471081 -605.977431 -99.999105 1089.814925 144204 3656.217395
0.145000 0.145132 7441.035579 88.523355 -563.726228 22.618090 -134.562206 166492 3656.217395
0.155000 0.155114 6472.751674 155.260857 -814.828353 -50.357515 -196.329213 189964 3656.217395
0.165000 0.165102 5673.208730 102.212655 -546.061964 -89.942720 -134.407452 215640 3656.217395
0.175000 0.175105 5238.298484 33.346755 -565.477123 56.960803 -606.675493 242836 3656.217395
0.185000 0.185097 4801.135554 77.557634 -623.327171 12.033604 -31.904847 270556 3656.217395
0.195000 0.195085 4395.856577 58.367660 -806.488428 48.343004 291.926904 301084 3656.217395
0.205000 0.205080 4041.421064 81.567077 -954.312492 -45.369286 184.666959 332628 3656.217395
0.215000 0.215092 3629.906129 70.340796 -442.795658 -63.596154 -95.719878 367216 3656.217395
0.225000 0.225099 3317.983365 60.969599 -701.282793 14.055951 269.651931 400444 3656.217395
0.235000 0.235081 3054.769183 36.665943 -677.987366 -29.109283 194.997676 436500 3656.217395
0.245000 0.245077 2942.759671 43.685687 -707.587352 0.908312 179.823478 475900 3656.217395
0.255000 0.255082 2668.968421 47.119663 -685.733620 28.027086 260.572465 514900 3656.217395
0.265000 0.265074 2463.556682 36.469605 -684.786627 -16.495191 192.262520 555408 3656.217395
0.275000 0.275066 2238.511455 50.503623 -747.195805 -48.985216 195.869282 598684 3656.217395
0.285000 0.285066 2171.068454 35.563076 -860.605301 41.520295 115.678334 643228 3656.217395
0.295000 0.295058 1998.941260 36.165165 -795.030197 -12.068163 302.176931 688036 3656.217395
