#Data file /home/DATA/sbrieden/Patchy_dr12_mocks/postrecon/original/Patchy-Mocks-DR12CMASS-N-V6C-Portsmouth-mass_f0784b1850s10_0090.dat
#Random file /home/DATA/sbrieden/Patchy_dr12_mocks/postrecon/original/Patchy-Mocks-DR12CMASS-N-V6C-Portsmouth-mass_f0784b1850s10_0090.ran
#Number of data elements used: 589896
#Number of random elements used: 11775221
#Effective number of data elements weighted by wcol: 589896.000000
#Effective number of random elements weighted by wcol: 11775221.000000
#Effective number of data elements weighted by wcol*wsys: 589896.000000
#Effective number of random elements weighted by wcol*wsys: 11775221.000000
#Effective redshift value from data 0.597717
#Effective redshift value from randoms 0.597890
#Size of the Box 3700.000000 Mpc/h
#Area of the survey used 6851.000000 deg^2
#Value of alpha: 0.050093
#Normalization using data file
#Normalization using density
#Normalization 11.080391
#Shot noise factor 1.000000
#Shot noise value 4956.346767
#Type of Computation: FFT
#Number of grid cells: 512
#Type of Mass Assigment: TSC
#Type of Yamamoto: GridCenter
#Number of Interlacing steps: 2
#Grid Correction: yes
#Value of Om=0.310000
#Quadrupole as L2
#Octopole as L3
#Hexadecapole as L2L2
#k-centerbin	 k-eff	 Monopole-Pshotnoise	 Dipole	 Quadrupole	 Octopole	 Hexadecapole	 number of modes	 Pshotnoise
0.005000 0.007485 41442.076541 -2398.920984 -1019.800701 2334.899090 970.417882 846 4956.346767
0.015000 0.016072 50633.203942 -571.217509 -12959.212552 2263.591441 10635.974973 6012 4956.346767
0.025000 0.025646 45675.435940 576.860892 -5095.537023 -3068.137822 -6200.210264 16172 4956.346767
0.035000 0.035469 35516.861433 868.795213 -2469.190118 124.611913 -3886.778649 31764 4956.346767
0.045000 0.045378 27676.206259 365.220791 -2294.725309 348.655440 1857.412913 52164 4956.346767
0.055000 0.055280 23162.517887 281.119774 -1035.449064 -147.332218 3482.453857 77396 4956.346767
0.065000 0.065232 20629.607668 212.450558 -1586.309643 60.049688 80.412960 108936 4956.346767
0.075000 0.075229 17683.721131 249.695660 -1233.903944 -399.257190 1337.994837 144980 4956.346767
0.085000 0.085193 14810.930758 189.091744 -820.964043 228.868961 -40.422344 184854 4956.346767
0.095000 0.095166 12765.468333 146.150601 -1605.797657 -9.747718 764.990409 232260 4956.346767
0.105000 0.105155 10518.585296 168.995454 -897.537990 -78.231735 -224.341485 282884 4956.346767
0.115000 0.115131 9369.293545 55.326101 -982.778741 9.641830 274.411911 339084 4956.346767
0.125000 0.125124 8902.141220 89.740512 -1200.405894 -11.705238 260.727924 401864 4956.346767
0.135000 0.135125 7833.319392 106.009038 -470.834224 -85.048208 144.001740 468084 4956.346767
0.145000 0.145120 7152.160310 82.781931 -595.963182 78.034723 567.991076 539940 4956.346767
0.155000 0.155118 6203.604096 92.247537 -695.943587 -50.905118 333.768208 617324 4956.346767
0.165000 0.165105 5573.114097 57.959679 -687.636111 -4.887323 -104.377746 697452 4956.346767
0.175000 0.175088 5137.185687 58.838922 -408.522720 -11.721179 140.945025 785846 4956.346767
0.185000 0.185089 4738.842347 70.574129 -598.656637 17.398343 10.842753 879528 4956.346767
0.195000 0.195093 4357.693376 49.142383 -821.450686 -13.369240 287.346238 976596 4956.346767
0.205000 0.205084 4011.386827 57.699801 -573.559819 -17.600357 83.707051 1077212 4956.346767
0.215000 0.215076 3602.633088 62.632010 -693.164061 -24.331430 85.689080 1186908 4956.346767
0.225000 0.225076 3329.410352 44.658834 -583.675652 4.585273 -51.511354 1299452 4956.346767
0.235000 0.235073 3095.739512 57.525940 -486.533061 -2.202958 94.853729 1417356 4956.346767
0.245000 0.245067 2852.919836 43.063733 -632.314383 11.480392 212.042459 1539600 4956.346767
0.255000 0.255064 2615.034111 49.548099 -543.229166 -28.275148 40.459866 1669820 4956.346767
0.265000 0.265061 2465.936251 47.461403 -671.191893 15.368906 148.362096 1801086 4956.346767
0.275000 0.275060 2309.479508 41.620253 -737.430878 0.005686 262.763570 1942244 4956.346767
0.285000 0.285062 2165.419512 48.712603 -826.649582 -6.532749 284.776683 2084796 4956.346767
0.295000 0.295057 2028.057380 50.273028 -748.016493 -20.150780 273.188600 2231868 4956.346767
