#Data file /home/DATA/sbrieden/Patchy_dr12_mocks/postrecon/original/Patchy-Mocks-DR12CMASS-S-V6C-Portsmouth-mass_f0784b1850s10_0031.dat
#Random file /home/DATA/sbrieden/Patchy_dr12_mocks/postrecon/original/Patchy-Mocks-DR12CMASS-S-V6C-Portsmouth-mass_f0784b1850s10_0031.ran
#Number of data elements used: 214430
#Number of random elements used: 4284812
#Effective number of data elements weighted by wcol: 214430.000000
#Effective number of random elements weighted by wcol: 4284812.000000
#Effective number of data elements weighted by wcol*wsys: 214430.000000
#Effective number of random elements weighted by wcol*wsys: 4284812.000000
#Effective redshift value from data 0.596909
#Effective redshift value from randoms 0.597019
#Size of the Box 3700.000000 Mpc/h
#Area of the survey used 2525.000000 deg^2
#Value of alpha: 0.049975
#Normalization using data file
#Normalization using density
#Normalization 4.065875
#Shot noise factor 1.000000
#Shot noise value 4935.938848
#Type of Computation: FFT
#Number of grid cells: 512
#Type of Mass Assigment: TSC
#Type of Yamamoto: GridCenter
#Number of Interlacing steps: 2
#Grid Correction: yes
#Value of Om=0.310000
#Quadrupole as L2
#Octopole as L3
#Hexadecapole as L2L2
#k-centerbin	 k-eff	 Monopole-Pshotnoise	 Dipole	 Quadrupole	 Octopole	 Hexadecapole	 number of modes	 Pshotnoise
0.005000 0.007485 62997.148675 2490.057367 -588.319361 -3389.805593 -4551.550506 846 4935.938848
0.015000 0.016072 47577.762006 1736.625531 -15318.146187 -3284.204841 -7235.198852 6012 4935.938848
0.025000 0.025646 37634.930212 -1000.648308 -12139.248600 1720.808123 8216.158710 16172 4935.938848
0.035000 0.035469 34189.213730 764.921426 -3913.480410 -975.647022 10736.260008 31764 4935.938848
0.045000 0.045378 25814.859091 491.715534 861.484705 66.883918 -861.035551 52164 4935.938848
0.055000 0.055280 22830.746830 99.958793 -3848.850432 -83.830539 -1434.214910 77396 4935.938848
0.065000 0.065232 20131.418478 440.613619 -1513.031667 -446.429920 608.481509 108936 4935.938848
0.075000 0.075229 17284.989904 138.670473 -559.770656 370.620462 4468.729113 144980 4935.938848
0.085000 0.085193 14889.868235 241.792961 -1602.028629 -300.685191 776.902043 184854 4935.938848
0.095000 0.095166 12148.027814 109.220656 -722.379811 90.458061 25.155694 232260 4935.938848
0.105000 0.105155 9993.934995 200.900653 -465.231205 -72.120772 -180.925329 282884 4935.938848
0.115000 0.115131 9194.683467 12.763666 -217.129996 118.038293 508.152649 339084 4935.938848
0.125000 0.125124 8796.866515 91.504678 -1531.760470 -22.909700 307.055024 401864 4935.938848
0.135000 0.135125 7697.141318 113.094042 -836.002959 -45.321587 640.334288 468084 4935.938848
0.145000 0.145120 6617.141269 94.768028 -840.768058 -28.988797 -528.047089 539940 4935.938848
0.155000 0.155118 5824.111951 72.286754 -921.871461 -34.724776 -264.201792 617324 4935.938848
0.165000 0.165105 5349.500553 54.075849 -852.400477 5.905403 -575.886738 697452 4935.938848
0.175000 0.175088 4856.993635 58.502556 -843.454167 0.396324 -22.575631 785846 4935.938848
0.185000 0.185089 4680.764393 41.972721 -921.538730 8.755225 223.059909 879528 4935.938848
0.195000 0.195093 4268.643246 73.008567 -718.795798 -58.519098 -97.399634 976596 4935.938848
0.205000 0.205084 3962.319522 51.155730 -758.703575 -8.271739 -2.192777 1077212 4935.938848
0.215000 0.215076 3614.397106 50.318653 -602.604379 13.856744 82.897042 1186908 4935.938848
0.225000 0.225076 3244.199683 57.379385 -714.020439 -27.493347 231.339815 1299452 4935.938848
0.235000 0.235073 3047.379009 52.137985 -578.945463 26.336230 179.163147 1417356 4935.938848
0.245000 0.245067 2669.427011 46.678630 -527.432578 -35.075233 2.552562 1539600 4935.938848
0.255000 0.255064 2639.672480 47.890833 -730.660381 -3.831658 121.216600 1669820 4935.938848
0.265000 0.265061 2439.591799 38.849581 -902.707120 37.944275 172.943681 1801086 4935.938848
0.275000 0.275060 2243.304389 46.472731 -875.993712 -8.068803 323.488990 1942244 4935.938848
0.285000 0.285062 2096.765910 53.079219 -913.735167 -42.471583 241.219983 2084796 4935.938848
0.295000 0.295057 1975.701506 42.360028 -877.552563 9.955017 281.131095 2231868 4935.938848
