#Data file /home/DATA/sbrieden/Patchy_dr12_mocks/postrecon/original/Patchy-Mocks-DR12CMASS-S-V6C-Portsmouth-mass_f0784b1850s10_0038.dat
#Random file /home/DATA/sbrieden/Patchy_dr12_mocks/postrecon/original/Patchy-Mocks-DR12CMASS-S-V6C-Portsmouth-mass_f0784b1850s10_0038.ran
#Number of data elements used: 214566
#Number of random elements used: 4287160
#Effective number of data elements weighted by wcol: 214566.000000
#Effective number of random elements weighted by wcol: 4287160.000000
#Effective number of data elements weighted by wcol*wsys: 214566.000000
#Effective number of random elements weighted by wcol*wsys: 4287160.000000
#Effective redshift value from data 0.597117
#Effective redshift value from randoms 0.596928
#Size of the Box 3700.000000 Mpc/h
#Area of the survey used 2525.000000 deg^2
#Value of alpha: 0.050184
#Normalization using data file
#Normalization using density
#Normalization 4.076638
#Shot noise factor 1.000000
#Shot noise value 4968.631449
#Type of Computation: FFT
#Number of grid cells: 512
#Type of Mass Assigment: TSC
#Type of Yamamoto: GridCenter
#Number of Interlacing steps: 2
#Grid Correction: yes
#Value of Om=0.310000
#Quadrupole as L2
#Octopole as L3
#Hexadecapole as L2L2
#k-centerbin	 k-eff	 Monopole-Pshotnoise	 Dipole	 Quadrupole	 Octopole	 Hexadecapole	 number of modes	 Pshotnoise
0.005000 0.007485 38200.307486 360.380345 1036.781799 -9240.524109 -22318.246138 846 4968.631449
0.015000 0.016072 44084.450822 -371.672833 -9386.317120 4421.400146 12019.543769 6012 4968.631449
0.025000 0.025646 43520.482887 736.124305 -9215.139092 -3269.643173 6757.254971 16172 4968.631449
0.035000 0.035469 36121.202360 -66.812642 -4352.376820 1523.722466 1634.391046 31764 4968.631449
0.045000 0.045378 27181.099503 800.104571 -5402.582057 -1249.105919 -1320.820033 52164 4968.631449
0.055000 0.055280 22925.229624 33.961758 -3704.750459 312.211601 3392.816083 77396 4968.631449
0.065000 0.065232 20624.658024 234.460282 -2071.252707 -115.085970 -918.780085 108936 4968.631449
0.075000 0.075229 17107.928434 366.544132 -2237.329875 -406.494891 402.574549 144980 4968.631449
0.085000 0.085193 13894.135734 110.240927 -709.967453 262.884680 -1420.769891 184854 4968.631449
0.095000 0.095166 11945.107986 182.686671 -2139.422961 -128.685487 1475.913314 232260 4968.631449
0.105000 0.105155 10702.505826 88.128231 -1602.818578 -55.304006 -71.922001 282884 4968.631449
0.115000 0.115131 9414.352846 102.192501 -1497.855800 15.128277 -795.516663 339084 4968.631449
0.125000 0.125124 8378.097177 92.176113 -1362.456489 -61.274652 -148.476783 401864 4968.631449
0.135000 0.135125 7873.521968 113.846947 -1151.144955 -141.445735 -65.023775 468084 4968.631449
0.145000 0.145120 6908.244135 102.955370 -103.120210 -24.593308 346.334836 539940 4968.631449
0.155000 0.155118 5967.309116 42.453292 -652.812216 132.007403 40.630067 617324 4968.631449
0.165000 0.165105 5535.419869 78.830749 -892.928284 -49.355999 160.848750 697452 4968.631449
0.175000 0.175088 5077.190104 69.744057 -847.638101 -55.435504 355.262252 785846 4968.631449
0.185000 0.185089 4535.207490 52.448322 -347.432449 -30.582986 -5.938937 879528 4968.631449
0.195000 0.195093 4200.693889 50.536510 -586.801393 62.500764 -481.886346 976596 4968.631449
0.205000 0.205084 3929.247342 58.581971 -727.840861 -18.420714 230.658911 1077212 4968.631449
0.215000 0.215076 3534.454634 54.495281 -646.944324 -12.648837 354.624431 1186908 4968.631449
0.225000 0.225076 3249.648586 61.417152 -527.127300 -13.572276 418.013322 1299452 4968.631449
0.235000 0.235073 2958.036118 53.098668 -676.832272 -5.827579 319.623836 1417356 4968.631449
0.245000 0.245067 2700.545100 28.879143 -634.425072 20.450143 46.844277 1539600 4968.631449
0.255000 0.255064 2621.277356 54.230292 -721.563686 -22.377344 214.966200 1669820 4968.631449
0.265000 0.265061 2373.358313 50.518235 -705.593035 13.448654 329.284372 1801086 4968.631449
0.275000 0.275060 2232.473288 37.114904 -900.508094 10.161441 388.778287 1942244 4968.631449
0.285000 0.285062 2084.871691 61.000713 -559.117395 -65.551401 347.394289 2084796 4968.631449
0.295000 0.295057 1970.502245 46.756333 -620.636181 -2.845769 211.120873 2231868 4968.631449
