#Data file /home/DATA/sbrieden/Patchy_dr12_mocks/postrecon/original/Patchy-Mocks-DR12LOWZ-S-V5C-Portsmouth-mass_f0693b1850s10_0005.dat
#Random file /home/DATA/sbrieden/Patchy_dr12_mocks/postrecon/original/Patchy-Mocks-DR12LOWZ-S-V5C-Portsmouth-mass_f0693b1850s10_0005.ran
#Number of data elements used: 99960
#Number of random elements used: 2004160
#Effective number of data elements weighted by wcol: 99960.000000
#Effective number of random elements weighted by wcol: 2004160.000000
#Effective number of data elements weighted by wcol*wsys: 99960.000000
#Effective number of random elements weighted by wcol*wsys: 2004160.000000
#Effective redshift value from data 0.330197
#Effective redshift value from randoms 0.330041
#Size of the Box 2500.000000 Mpc/h
#Area of the survey used 2501.000000 deg^2
#Value of alpha: 0.049906
#Normalization using data file
#Normalization using density
#Normalization 1.853873
#Shot noise factor 1.000000
#Shot noise value 3656.590778
#Type of Computation: FFT
#Number of grid cells: 512
#Type of Mass Assigment: TSC
#Type of Yamamoto: GridCenter
#Number of Interlacing steps: 2
#Grid Correction: yes
#Value of Om=0.310000
#Quadrupole as L2
#Octopole as L3
#Hexadecapole as L2L2
#k-centerbin	 k-eff	 Monopole-Pshotnoise	 Dipole	 Quadrupole	 Octopole	 Hexadecapole	 number of modes	 Pshotnoise
0.005000 0.007385 17716.387296 -582.581735 -10374.525031 -16157.395876 -14033.209841 250 3656.590778
0.015000 0.016012 40071.808723 -3269.946593 9543.335500 -3329.856487 -15415.485604 1852 3656.590778
0.025000 0.025646 48668.994045 831.061922 7987.646818 3284.347892 -3000.042747 5020 3656.590778
0.035000 0.035469 39752.585154 1753.026772 -2661.369712 942.734089 -5337.308342 9756 3656.590778
0.045000 0.045368 28588.316540 658.978918 -97.293144 713.314261 1628.815045 16108 3656.590778
0.055000 0.055314 23287.860366 350.591856 -5681.093712 -1413.123917 -3914.895985 24064 3656.590778
0.065000 0.065258 21561.437430 472.696870 -1522.310694 86.937746 1044.811914 33396 3656.590778
0.075000 0.075209 17542.895908 370.423436 -1060.912754 -290.164356 392.548239 44596 3656.590778
0.085000 0.085175 16940.164965 122.957684 1439.207195 71.199839 806.008790 57124 3656.590778
0.095000 0.095157 13369.345091 483.276006 -299.514544 151.119440 -1490.829051 71620 3656.590778
0.105000 0.105162 10969.438391 148.131316 348.980356 62.101938 61.464818 87552 3656.590778
0.115000 0.115148 9848.847668 125.503210 -973.155120 -295.206995 -840.509301 104524 3656.590778
0.125000 0.125146 9244.545082 109.640664 -676.464611 235.403853 -1181.323816 124228 3656.590778
0.135000 0.135146 8448.017026 133.114979 -1173.354648 -241.832532 501.496542 144204 3656.590778
0.145000 0.145132 7906.219941 133.166107 -75.592717 14.491235 191.371013 166492 3656.590778
0.155000 0.155114 6642.248238 143.389447 -842.817165 181.561435 -99.399071 189964 3656.590778
0.165000 0.165102 5665.619577 64.270559 -974.937271 -17.747932 1403.092160 215640 3656.590778
0.175000 0.175105 5324.138747 69.939195 -1039.068678 -33.484720 290.644229 242836 3656.590778
0.185000 0.185097 4888.170163 94.189394 -1067.132371 -126.442009 55.393099 270556 3656.590778
0.195000 0.195085 4364.613967 54.049868 -621.197877 113.429354 316.542980 301084 3656.590778
0.205000 0.205080 3990.248401 75.976054 -1125.642475 15.414149 376.206184 332628 3656.590778
0.215000 0.215092 3671.617415 41.717317 -1041.385601 -52.707454 619.219178 367216 3656.590778
0.225000 0.225099 3274.519821 84.110353 -766.526837 -109.515084 198.535812 400444 3656.590778
0.235000 0.235081 3065.580659 23.334978 -661.419464 48.070080 -92.062809 436500 3656.590778
0.245000 0.245077 2936.260169 54.464180 -641.147812 -51.254412 114.421174 475900 3656.590778
0.255000 0.255082 2547.821511 72.044140 -597.726295 41.643620 -19.008805 514900 3656.590778
0.265000 0.265074 2357.294077 17.808530 -767.972645 -0.782368 364.267877 555408 3656.590778
0.275000 0.275066 2281.752630 44.399520 -919.137273 -46.682801 165.228415 598684 3656.590778
0.285000 0.285066 2120.370930 47.982294 -633.843365 -6.646291 166.241892 643228 3656.590778
0.295000 0.295058 1966.568873 30.016769 -821.714625 -24.273302 104.941318 688036 3656.590778
