#Data file /home/DATA/sbrieden/Patchy_dr12_mocks/postrecon/original/Patchy-Mocks-DR12CMASS-N-V6C-Portsmouth-mass_f0784b1850s10_0092.dat
#Random file /home/DATA/sbrieden/Patchy_dr12_mocks/postrecon/original/Patchy-Mocks-DR12CMASS-N-V6C-Portsmouth-mass_f0784b1850s10_0092.ran
#Number of data elements used: 591657
#Number of random elements used: 11785652
#Effective number of data elements weighted by wcol: 591657.000000
#Effective number of random elements weighted by wcol: 11785652.000000
#Effective number of data elements weighted by wcol*wsys: 591657.000000
#Effective number of random elements weighted by wcol*wsys: 11785652.000000
#Effective redshift value from data 0.597510
#Effective redshift value from randoms 0.597887
#Size of the Box 3700.000000 Mpc/h
#Area of the survey used 6851.000000 deg^2
#Value of alpha: 0.050226
#Normalization using data file
#Normalization using density
#Normalization 11.122325
#Shot noise factor 1.000000
#Shot noise value 4954.649457
#Type of Computation: FFT
#Number of grid cells: 512
#Type of Mass Assigment: TSC
#Type of Yamamoto: GridCenter
#Number of Interlacing steps: 2
#Grid Correction: yes
#Value of Om=0.310000
#Quadrupole as L2
#Octopole as L3
#Hexadecapole as L2L2
#k-centerbin	 k-eff	 Monopole-Pshotnoise	 Dipole	 Quadrupole	 Octopole	 Hexadecapole	 number of modes	 Pshotnoise
0.005000 0.007485 46569.054093 777.091489 8979.550062 1471.927674 7486.373865 846 4954.649457
0.015000 0.016072 51666.482894 388.121109 575.931668 249.457831 13276.591638 6012 4954.649457
0.025000 0.025646 49507.811418 474.649309 3073.449057 -556.002435 -10270.988055 16172 4954.649457
0.035000 0.035469 36346.665735 557.947915 -3663.239613 915.645447 -115.386029 31764 4954.649457
0.045000 0.045378 27880.069972 547.860486 -2609.583593 -659.280723 -5449.820965 52164 4954.649457
0.055000 0.055280 22666.383567 266.928232 -2112.020468 48.473713 -978.893469 77396 4954.649457
0.065000 0.065232 19977.848082 249.992027 -2038.181796 -130.794856 418.495510 108936 4954.649457
0.075000 0.075229 17807.083509 130.613636 -2610.059198 16.308750 372.867163 144980 4954.649457
0.085000 0.085193 14795.781264 261.672788 -2512.446995 -119.098995 916.775895 184854 4954.649457
0.095000 0.095166 12307.705169 200.747408 -1697.321853 -174.722949 229.628132 232260 4954.649457
0.105000 0.105155 10542.479365 110.315715 -802.271955 -18.759588 -378.132378 282884 4954.649457
0.115000 0.115131 9760.072947 55.338573 -1178.463870 33.219769 275.473676 339084 4954.649457
0.125000 0.125124 8813.237776 104.475438 -818.869508 -21.898995 289.986696 401864 4954.649457
0.135000 0.135125 8107.921268 94.555568 -937.860298 -75.103050 -447.100324 468084 4954.649457
0.145000 0.145120 7118.416941 101.201063 -451.185298 20.509397 -134.296244 539940 4954.649457
0.155000 0.155118 6168.885425 94.393499 -497.289924 1.566226 2.278019 617324 4954.649457
0.165000 0.165105 5530.812277 40.006775 -633.032693 32.876684 42.479146 697452 4954.649457
0.175000 0.175088 5180.689945 55.511109 -389.740812 -39.931058 -68.972823 785846 4954.649457
0.185000 0.185089 4866.467364 61.109809 -593.754311 13.418930 42.941636 879528 4954.649457
0.195000 0.195093 4468.433761 53.007248 -536.995836 -15.226351 119.986021 976596 4954.649457
0.205000 0.205084 4064.466286 73.168862 -720.484938 -6.775048 152.590567 1077212 4954.649457
0.215000 0.215076 3584.687373 59.920474 -395.444198 -22.144218 -40.229192 1186908 4954.649457
0.225000 0.225076 3261.511436 50.209582 -565.333027 0.427988 1.903852 1299452 4954.649457
0.235000 0.235073 3135.394707 38.423325 -669.161436 23.444316 62.054854 1417356 4954.649457
0.245000 0.245067 2918.569402 56.226434 -813.051478 -16.134590 191.778303 1539600 4954.649457
0.255000 0.255064 2724.580223 46.661399 -800.788918 -15.484540 198.466750 1669820 4954.649457
0.265000 0.265061 2475.035537 56.923198 -611.205880 -8.700066 214.321129 1801086 4954.649457
0.275000 0.275060 2281.238142 34.952231 -721.982215 17.224885 259.490660 1942244 4954.649457
0.285000 0.285062 2198.870998 54.589688 -723.929533 -21.365362 205.611564 2084796 4954.649457
0.295000 0.295057 1982.023294 46.779149 -632.120691 3.701761 277.007644 2231868 4954.649457
