#Data file /home/DATA/sbrieden/Patchy_dr12_mocks/postrecon/original/Patchy-Mocks-DR12CMASS-N-V6C-Portsmouth-mass_f0784b1850s10_0011.dat
#Random file /home/DATA/sbrieden/Patchy_dr12_mocks/postrecon/original/Patchy-Mocks-DR12CMASS-N-V6C-Portsmouth-mass_f0784b1850s10_0011.ran
#Number of data elements used: 586969
#Number of random elements used: 11784965
#Effective number of data elements weighted by wcol: 586969.000000
#Effective number of random elements weighted by wcol: 11784965.000000
#Effective number of data elements weighted by wcol*wsys: 586969.000000
#Effective number of random elements weighted by wcol*wsys: 11784965.000000
#Effective redshift value from data 0.597584
#Effective redshift value from randoms 0.597890
#Size of the Box 3700.000000 Mpc/h
#Area of the survey used 6851.000000 deg^2
#Value of alpha: 0.049834
#Normalization using data file
#Normalization using density
#Normalization 11.031564
#Shot noise factor 1.000000
#Shot noise value 4958.379889
#Type of Computation: FFT
#Number of grid cells: 512
#Type of Mass Assigment: TSC
#Type of Yamamoto: GridCenter
#Number of Interlacing steps: 2
#Grid Correction: yes
#Value of Om=0.310000
#Quadrupole as L2
#Octopole as L3
#Hexadecapole as L2L2
#k-centerbin	 k-eff	 Monopole-Pshotnoise	 Dipole	 Quadrupole	 Octopole	 Hexadecapole	 number of modes	 Pshotnoise
0.005000 0.007485 32938.250330 -2349.248323 -8190.546271 -297.619513 10607.150416 846 4958.379889
0.015000 0.016072 47255.407913 -482.988781 -6282.928930 -1102.093162 -1164.339401 6012 4958.379889
0.025000 0.025646 46451.236488 547.749136 -2615.438844 -1147.770295 -5871.195534 16172 4958.379889
0.035000 0.035469 36476.095486 985.047305 -2272.011513 -110.135198 1401.284904 31764 4958.379889
0.045000 0.045378 27666.887316 263.323599 -1643.933856 517.021626 1237.938176 52164 4958.379889
0.055000 0.055280 22425.489164 237.201548 -2060.933666 -374.095535 673.601270 77396 4958.379889
0.065000 0.065232 20282.777930 280.942835 -2040.657497 95.890115 1229.297184 108936 4958.379889
0.075000 0.075229 17636.067080 187.605565 -1616.336452 -274.381005 -11.259972 144980 4958.379889
0.085000 0.085193 15115.891136 195.515958 -1626.476915 110.938404 281.720063 184854 4958.379889
0.095000 0.095166 12080.807735 216.117646 -1718.226160 -54.947586 186.648840 232260 4958.379889
0.105000 0.105155 10506.758518 104.850404 -1410.450326 -45.237007 -147.841090 282884 4958.379889
0.115000 0.115131 9504.773307 59.783006 -1341.091730 10.396310 135.380538 339084 4958.379889
0.125000 0.125124 8889.705957 116.945306 -1448.786154 -103.889591 -38.445786 401864 4958.379889
0.135000 0.135125 7912.708871 67.668550 -1068.364029 40.009613 177.870612 468084 4958.379889
0.145000 0.145120 7163.536405 110.495617 -1186.291646 -91.392354 -26.244351 539940 4958.379889
0.155000 0.155118 6085.865416 92.203059 -627.473252 25.321873 -289.325693 617324 4958.379889
0.165000 0.165105 5461.239738 48.478035 -741.704509 -52.292324 -153.172164 697452 4958.379889
0.175000 0.175088 5068.295691 57.908578 -611.501076 31.373297 -139.677496 785846 4958.379889
0.185000 0.185089 4707.580022 63.045345 -710.157921 -49.168405 127.330255 879528 4958.379889
0.195000 0.195093 4372.052989 50.277937 -547.377438 0.970624 -15.424822 976596 4958.379889
0.205000 0.205084 4070.869775 57.548553 -500.740916 18.745217 135.747085 1077212 4958.379889
0.215000 0.215076 3725.713339 63.660715 -479.514007 -26.513356 178.844107 1186908 4958.379889
0.225000 0.225076 3308.380333 51.423330 -657.427409 17.850684 163.746543 1299452 4958.379889
0.235000 0.235073 3031.329242 49.005490 -638.608365 -5.427157 -12.425825 1417356 4958.379889
0.245000 0.245067 2851.164940 44.198802 -655.730412 -16.975173 140.443908 1539600 4958.379889
0.255000 0.255064 2675.335741 53.932094 -734.446485 -11.733368 162.099010 1669820 4958.379889
0.265000 0.265061 2501.263955 45.684150 -666.961047 -1.918166 154.781315 1801086 4958.379889
0.275000 0.275060 2280.393713 45.746354 -616.098121 6.364416 298.533759 1942244 4958.379889
0.285000 0.285062 2168.817041 49.146380 -613.760477 -11.191907 322.367795 2084796 4958.379889
0.295000 0.295057 2036.108089 46.729141 -780.760909 8.414240 199.999165 2231868 4958.379889
