#Data file /home/DATA/sbrieden/Patchy_dr12_mocks/postrecon/original/Patchy-Mocks-DR12CMASS-S-V6C-Portsmouth-mass_f0784b1850s10_0065.dat
#Random file /home/DATA/sbrieden/Patchy_dr12_mocks/postrecon/original/Patchy-Mocks-DR12CMASS-S-V6C-Portsmouth-mass_f0784b1850s10_0065.ran
#Number of data elements used: 215007
#Number of random elements used: 4279560
#Effective number of data elements weighted by wcol: 215007.000000
#Effective number of random elements weighted by wcol: 4279560.000000
#Effective number of data elements weighted by wcol*wsys: 215007.000000
#Effective number of random elements weighted by wcol*wsys: 4279560.000000
#Effective redshift value from data 0.597254
#Effective redshift value from randoms 0.596928
#Size of the Box 3700.000000 Mpc/h
#Area of the survey used 2525.000000 deg^2
#Value of alpha: 0.050303
#Normalization using data file
#Normalization using density
#Normalization 4.079674
#Shot noise factor 1.000000
#Shot noise value 4960.066291
#Type of Computation: FFT
#Number of grid cells: 512
#Type of Mass Assigment: TSC
#Type of Yamamoto: GridCenter
#Number of Interlacing steps: 2
#Grid Correction: yes
#Value of Om=0.310000
#Quadrupole as L2
#Octopole as L3
#Hexadecapole as L2L2
#k-centerbin	 k-eff	 Monopole-Pshotnoise	 Dipole	 Quadrupole	 Octopole	 Hexadecapole	 number of modes	 Pshotnoise
0.005000 0.007485 41876.757246 -1927.935515 -6191.197682 -5621.443927 -11509.986217 846 4960.066291
0.015000 0.016072 46187.941687 -586.697643 -3625.724157 3977.762760 14366.000857 6012 4960.066291
0.025000 0.025646 45403.363932 942.875360 -5549.591628 -1196.072617 150.880869 16172 4960.066291
0.035000 0.035469 32479.560733 786.441027 -4634.727221 -339.803259 5830.233653 31764 4960.066291
0.045000 0.045378 26493.666893 258.458570 -4675.528326 -245.381842 2432.651124 52164 4960.066291
0.055000 0.055280 22366.005572 240.643756 -563.550933 -179.586397 3228.527688 77396 4960.066291
0.065000 0.065232 19965.697216 170.114375 -1810.688032 250.391615 2319.763334 108936 4960.066291
0.075000 0.075229 18295.007522 176.678670 -1794.184669 -186.722927 -374.138111 144980 4960.066291
0.085000 0.085193 14541.246859 325.277161 128.718500 -97.721544 26.314708 184854 4960.066291
0.095000 0.095166 12106.892540 159.111240 -865.705898 110.068075 447.683337 232260 4960.066291
0.105000 0.105155 10219.455339 119.877145 -402.338778 -118.995438 351.674086 282884 4960.066291
0.115000 0.115131 9419.901891 39.715471 -494.890705 219.755431 13.652573 339084 4960.066291
0.125000 0.125124 8618.333202 99.839050 -1630.356590 -42.248034 816.961622 401864 4960.066291
0.135000 0.135125 7699.781708 101.159758 -499.948855 -123.364050 442.611757 468084 4960.066291
0.145000 0.145120 6906.569393 81.966743 -502.325721 -4.296433 383.432242 539940 4960.066291
0.155000 0.155118 5953.950077 106.717875 -493.539179 46.433106 -312.352349 617324 4960.066291
0.165000 0.165105 5148.638245 46.777481 -724.368094 -0.806607 936.644955 697452 4960.066291
0.175000 0.175088 4914.947752 69.611979 -572.860543 -29.553480 130.080326 785846 4960.066291
0.185000 0.185089 4583.655384 39.768152 -742.081699 -0.642082 117.961041 879528 4960.066291
0.195000 0.195093 4308.073295 62.739879 -607.374836 -25.385665 302.717852 976596 4960.066291
0.205000 0.205084 3967.651158 45.501404 -484.971589 16.973135 -2.628614 1077212 4960.066291
0.215000 0.215076 3591.376059 65.604274 -606.060471 -11.949483 26.280387 1186908 4960.066291
0.225000 0.225076 3212.567225 55.679242 -700.519498 9.845939 223.024411 1299452 4960.066291
0.235000 0.235073 2929.505362 38.302562 -776.200919 4.848403 226.653540 1417356 4960.066291
0.245000 0.245067 2769.895731 59.811400 -661.170688 -24.977018 137.962747 1539600 4960.066291
0.255000 0.255064 2630.109552 36.660911 -709.139049 -15.048725 312.244148 1669820 4960.066291
0.265000 0.265061 2456.562780 50.279995 -685.154346 5.990270 139.028186 1801086 4960.066291
0.275000 0.275060 2217.321473 47.972646 -735.913064 -6.261530 183.638817 1942244 4960.066291
0.285000 0.285062 2100.144126 45.116690 -769.768519 2.844969 149.791055 2084796 4960.066291
0.295000 0.295057 1987.843407 45.560902 -708.740078 -39.899605 246.077405 2231868 4960.066291
