#Data file /home/DATA/sbrieden/Patchy_dr12_mocks/postrecon/original/Patchy-Mocks-DR12CMASS-S-V6C-Portsmouth-mass_f0784b1850s10_0018.dat
#Random file /home/DATA/sbrieden/Patchy_dr12_mocks/postrecon/original/Patchy-Mocks-DR12CMASS-S-V6C-Portsmouth-mass_f0784b1850s10_0018.ran
#Number of data elements used: 216970
#Number of random elements used: 4282874
#Effective number of data elements weighted by wcol: 216970.000000
#Effective number of random elements weighted by wcol: 4282874.000000
#Effective number of data elements weighted by wcol*wsys: 216970.000000
#Effective number of random elements weighted by wcol*wsys: 4282874.000000
#Effective redshift value from data 0.596628
#Effective redshift value from randoms 0.597234
#Size of the Box 3700.000000 Mpc/h
#Area of the survey used 2525.000000 deg^2
#Value of alpha: 0.050529
#Normalization using data file
#Normalization using density
#Normalization 4.112869
#Shot noise factor 1.000000
#Shot noise value 4924.352467
#Type of Computation: FFT
#Number of grid cells: 512
#Type of Mass Assigment: TSC
#Type of Yamamoto: GridCenter
#Number of Interlacing steps: 2
#Grid Correction: yes
#Value of Om=0.310000
#Quadrupole as L2
#Octopole as L3
#Hexadecapole as L2L2
#k-centerbin	 k-eff	 Monopole-Pshotnoise	 Dipole	 Quadrupole	 Octopole	 Hexadecapole	 number of modes	 Pshotnoise
0.005000 0.007485 81767.293573 -5722.257698 -49762.859222 3317.946438 19391.221983 846 4924.352467
0.015000 0.016072 55222.353086 727.905908 -355.524269 -2747.671384 13644.343236 6012 4924.352467
0.025000 0.025646 46617.594740 1534.752648 -5554.605924 1.281103 1492.005428 16172 4924.352467
0.035000 0.035469 31715.745035 22.215224 -1878.605404 1043.671278 4726.459787 31764 4924.352467
0.045000 0.045378 27009.277262 857.981925 -4179.657438 -430.169649 1214.699707 52164 4924.352467
0.055000 0.055280 21867.058225 -10.961489 -4686.039497 -32.909626 8064.492211 77396 4924.352467
0.065000 0.065232 20316.035061 168.754701 -3786.442050 -212.337376 1692.121997 108936 4924.352467
0.075000 0.075229 17007.396504 296.741659 -1330.409671 -130.265208 663.989377 144980 4924.352467
0.085000 0.085193 14818.483652 162.008475 -1524.486356 131.397335 -143.419359 184854 4924.352467
0.095000 0.095166 11753.595384 171.383986 -1274.739357 -53.990964 389.328246 232260 4924.352467
0.105000 0.105155 10104.986914 106.526832 -2584.685222 -22.873482 487.631986 282884 4924.352467
0.115000 0.115131 9419.739667 137.229991 -983.327840 -168.545771 -604.571587 339084 4924.352467
0.125000 0.125124 8695.109808 34.352694 -888.275868 76.689035 1224.077844 401864 4924.352467
0.135000 0.135125 7804.668929 130.761605 -799.911608 -0.955372 1091.078679 468084 4924.352467
0.145000 0.145120 7042.698588 42.257537 -961.451350 -6.425049 198.439115 539940 4924.352467
0.155000 0.155118 6094.764156 122.699738 -906.994010 -94.728870 -25.654026 617324 4924.352467
0.165000 0.165105 5352.722604 63.572803 -612.315628 -15.295644 -46.833882 697452 4924.352467
0.175000 0.175088 5120.958106 39.012497 -846.807728 30.266187 356.778665 785846 4924.352467
0.185000 0.185089 4697.663501 60.507965 -774.557359 -29.758222 -152.548917 879528 4924.352467
0.195000 0.195093 4338.560817 47.263912 -1007.995254 36.616235 94.268606 976596 4924.352467
0.205000 0.205084 3927.948530 80.533846 -513.742473 -54.573011 610.048155 1077212 4924.352467
0.215000 0.215076 3565.113230 57.056016 -704.527251 0.732553 229.503667 1186908 4924.352467
0.225000 0.225076 3284.261247 40.844614 -793.961440 -0.086662 151.966550 1299452 4924.352467
0.235000 0.235073 3118.532818 35.513314 -667.007793 22.861986 315.443413 1417356 4924.352467
0.245000 0.245067 2882.774164 61.971856 -759.743171 -8.447816 251.390437 1539600 4924.352467
0.255000 0.255064 2593.341896 47.113158 -767.596309 -9.620278 378.491771 1669820 4924.352467
0.265000 0.265061 2391.748071 52.012308 -699.597519 -43.200934 125.338087 1801086 4924.352467
0.275000 0.275060 2224.929884 48.258415 -746.137408 -0.650112 111.415726 1942244 4924.352467
0.285000 0.285062 2039.353588 50.036687 -638.944788 -2.011516 113.182927 2084796 4924.352467
0.295000 0.295057 1898.964404 49.756742 -696.608990 -10.131878 361.437427 2231868 4924.352467
