#Data file /home/DATA/sbrieden/Patchy_dr12_mocks/postrecon/original/Patchy-Mocks-DR12CMASS-S-V6C-Portsmouth-mass_f0784b1850s10_0068.dat
#Random file /home/DATA/sbrieden/Patchy_dr12_mocks/postrecon/original/Patchy-Mocks-DR12CMASS-S-V6C-Portsmouth-mass_f0784b1850s10_0068.ran
#Number of data elements used: 214035
#Number of random elements used: 4296070
#Effective number of data elements weighted by wcol: 214035.000000
#Effective number of random elements weighted by wcol: 4296070.000000
#Effective number of data elements weighted by wcol*wsys: 214035.000000
#Effective number of random elements weighted by wcol*wsys: 4296070.000000
#Effective redshift value from data 0.597096
#Effective redshift value from randoms 0.596840
#Size of the Box 3700.000000 Mpc/h
#Area of the survey used 2525.000000 deg^2
#Value of alpha: 0.049985
#Normalization using data file
#Normalization using density
#Normalization 4.072289
#Shot noise factor 1.000000
#Shot noise value 4955.521665
#Type of Computation: FFT
#Number of grid cells: 512
#Type of Mass Assigment: TSC
#Type of Yamamoto: GridCenter
#Number of Interlacing steps: 2
#Grid Correction: yes
#Value of Om=0.310000
#Quadrupole as L2
#Octopole as L3
#Hexadecapole as L2L2
#k-centerbin	 k-eff	 Monopole-Pshotnoise	 Dipole	 Quadrupole	 Octopole	 Hexadecapole	 number of modes	 Pshotnoise
0.005000 0.007485 27124.152653 -5922.682866 9127.409181 13448.344625 17266.267393 846 4955.521665
0.015000 0.016072 45946.019376 330.697301 -2887.950613 429.611319 7867.301126 6012 4955.521665
0.025000 0.025646 41267.584835 1330.457824 8392.555432 -829.893767 -5104.768752 16172 4955.521665
0.035000 0.035469 32714.336628 273.571026 -4992.035211 -116.582446 -1682.075007 31764 4955.521665
0.045000 0.045378 28653.191406 395.322158 -5259.458600 -67.419103 770.420757 52164 4955.521665
0.055000 0.055280 22493.669446 221.516626 -2538.402044 -499.558418 -1800.319229 77396 4955.521665
0.065000 0.065232 19507.550854 65.389041 -857.847101 331.215278 -923.845473 108936 4955.521665
0.075000 0.075229 17120.939749 305.586557 -701.156541 -239.663526 1221.240464 144980 4955.521665
0.085000 0.085193 14917.587174 192.657844 -487.812092 -24.282773 -1763.494866 184854 4955.521665
0.095000 0.095166 12295.091164 157.406385 -1192.677449 191.444111 282.776381 232260 4955.521665
0.105000 0.105155 10334.800655 119.574468 -1805.687773 32.099835 1074.187769 282884 4955.521665
0.115000 0.115131 9098.681910 76.378530 -1907.075600 -61.020331 514.599373 339084 4955.521665
0.125000 0.125124 8500.721992 110.185631 -1585.814225 -117.674094 108.961294 401864 4955.521665
0.135000 0.135125 7839.823670 83.639796 -670.182525 -65.497384 -12.607968 468084 4955.521665
0.145000 0.145120 6707.653719 93.041205 -267.534798 35.719101 -217.240471 539940 4955.521665
0.155000 0.155118 5887.423898 83.741311 -762.833984 -18.660435 559.277161 617324 4955.521665
0.165000 0.165105 5423.863454 62.837632 -817.929475 3.055479 -174.654967 697452 4955.521665
0.175000 0.175088 5052.642228 76.495474 -635.109651 -31.392619 -43.885662 785846 4955.521665
0.185000 0.185089 4595.612462 31.918836 -779.035898 36.811160 201.329219 879528 4955.521665
0.195000 0.195093 4363.158306 55.777893 -1158.563171 -26.724087 185.004407 976596 4955.521665
0.205000 0.205084 3833.842878 83.163708 -536.306552 -47.394854 208.346697 1077212 4955.521665
0.215000 0.215076 3440.132382 20.720290 -625.793607 52.935729 81.374302 1186908 4955.521665
0.225000 0.225076 3303.681672 70.337933 -843.179329 -46.352422 -67.813749 1299452 4955.521665
0.235000 0.235073 2910.432008 38.601743 -609.360350 16.416213 101.181371 1417356 4955.521665
0.245000 0.245067 2852.763873 48.369523 -849.250683 -17.788549 317.125605 1539600 4955.521665
0.255000 0.255064 2668.076719 50.618215 -641.184345 -6.774926 225.468351 1669820 4955.521665
0.265000 0.265061 2420.261183 48.274874 -687.741616 7.592560 498.974290 1801086 4955.521665
0.275000 0.275060 2296.517309 46.849186 -761.759398 -24.525026 317.820569 1942244 4955.521665
0.285000 0.285062 2111.686807 45.968161 -647.819541 3.444749 146.040415 2084796 4955.521665
0.295000 0.295057 1986.894229 37.922923 -778.628544 8.452931 219.869263 2231868 4955.521665
