#Data file /home/DATA/sbrieden/Patchy_dr12_mocks/postrecon/original/Patchy-Mocks-DR12LOWZ-S-V5C-Portsmouth-mass_f0693b1850s10_0076.dat
#Random file /home/DATA/sbrieden/Patchy_dr12_mocks/postrecon/original/Patchy-Mocks-DR12LOWZ-S-V5C-Portsmouth-mass_f0693b1850s10_0076.ran
#Number of data elements used: 99241
#Number of random elements used: 2006272
#Effective number of data elements weighted by wcol: 99241.000000
#Effective number of random elements weighted by wcol: 2006272.000000
#Effective number of data elements weighted by wcol*wsys: 99241.000000
#Effective number of random elements weighted by wcol*wsys: 2006272.000000
#Effective redshift value from data 0.329796
#Effective redshift value from randoms 0.330210
#Size of the Box 2500.000000 Mpc/h
#Area of the survey used 2501.000000 deg^2
#Value of alpha: 0.049245
#Normalization using data file
#Normalization using density
#Normalization 1.834354
#Shot noise factor 1.000000
#Shot noise value 3626.908034
#Type of Computation: FFT
#Number of grid cells: 512
#Type of Mass Assigment: TSC
#Type of Yamamoto: GridCenter
#Number of Interlacing steps: 2
#Grid Correction: yes
#Value of Om=0.310000
#Quadrupole as L2
#Octopole as L3
#Hexadecapole as L2L2
#k-centerbin	 k-eff	 Monopole-Pshotnoise	 Dipole	 Quadrupole	 Octopole	 Hexadecapole	 number of modes	 Pshotnoise
0.005000 0.007385 37474.597509 -9731.941011 -14850.572502 -19374.674710 -29431.750515 250 3626.908034
0.015000 0.016012 62411.435460 622.766375 16775.846095 -62.278201 -60.872256 1852 3626.908034
0.025000 0.025646 52047.672709 2639.315236 15079.254845 3864.188766 11203.027459 5020 3626.908034
0.035000 0.035469 41675.782531 1708.238664 7939.442313 2914.431028 7651.836000 9756 3626.908034
0.045000 0.045368 28485.223677 512.275389 -4741.066852 2181.505648 4729.802135 16108 3626.908034
0.055000 0.055314 23425.658086 680.927826 -6040.156734 -1889.901066 3293.165421 24064 3626.908034
0.065000 0.065258 20484.471174 217.168641 -2170.499986 -46.690980 -2233.556993 33396 3626.908034
0.075000 0.075209 18736.098287 11.703009 639.761433 -107.994226 -1638.713059 44596 3626.908034
0.085000 0.085175 16836.042735 757.249130 -1622.574497 328.215957 371.259920 57124 3626.908034
0.095000 0.095157 12820.503645 151.847726 -2674.261229 -437.697325 697.952453 71620 3626.908034
0.105000 0.105162 11607.463891 176.329134 -1544.923587 149.940430 1104.276937 87552 3626.908034
0.115000 0.115148 10072.778823 105.543065 -1990.846139 -94.103401 988.713689 104524 3626.908034
0.125000 0.125146 9559.794386 160.066053 -1273.283386 -291.578676 -24.843896 124228 3626.908034
0.135000 0.135146 8074.692239 212.421734 -562.832104 -7.807856 177.023960 144204 3626.908034
0.145000 0.145132 6999.353138 131.103511 -404.377092 64.409137 -400.613698 166492 3626.908034
0.155000 0.155114 6139.745243 81.731386 -698.440786 -33.366623 -675.124361 189964 3626.908034
0.165000 0.165102 5806.641181 22.915906 -994.891801 167.138253 394.432905 215640 3626.908034
0.175000 0.175105 5437.056275 74.997979 -899.175086 -205.674399 210.082997 242836 3626.908034
0.185000 0.185097 4988.634734 93.099118 -935.759149 63.034336 6.313400 270556 3626.908034
0.195000 0.195085 4592.618437 40.086838 -756.612708 -34.789553 87.205826 301084 3626.908034
0.205000 0.205080 4084.052208 97.029486 -1088.627097 -0.801486 -351.504484 332628 3626.908034
0.215000 0.215092 3577.636132 86.751777 -925.619081 -71.186078 -71.926979 367216 3626.908034
0.225000 0.225099 3197.906187 34.838984 -752.731957 29.566024 384.144164 400444 3626.908034
0.235000 0.235081 3032.787778 77.270321 -932.003896 -12.789857 426.498074 436500 3626.908034
0.245000 0.245077 2734.640381 17.998618 -906.843255 12.168223 274.731380 475900 3626.908034
0.255000 0.255082 2507.590076 52.473632 -777.843733 -71.426608 71.483910 514900 3626.908034
0.265000 0.265074 2407.633668 34.621852 -675.060565 15.977320 23.122434 555408 3626.908034
0.275000 0.275066 2291.148895 35.765522 -718.192198 0.638844 278.862905 598684 3626.908034
0.285000 0.285066 2079.323721 57.066551 -901.328777 0.191083 494.097947 643228 3626.908034
0.295000 0.295058 1861.118877 35.463717 -721.461768 -26.434988 435.542601 688036 3626.908034
