#Data file /home/DATA/sbrieden/Patchy_dr12_mocks/postrecon/original/Patchy-Mocks-DR12LOWZ-S-V5C-Portsmouth-mass_f0693b1850s10_0081.dat
#Random file /home/DATA/sbrieden/Patchy_dr12_mocks/postrecon/original/Patchy-Mocks-DR12LOWZ-S-V5C-Portsmouth-mass_f0693b1850s10_0081.ran
#Number of data elements used: 99338
#Number of random elements used: 2008406
#Effective number of data elements weighted by wcol: 99338.000000
#Effective number of random elements weighted by wcol: 2008406.000000
#Effective number of data elements weighted by wcol*wsys: 99338.000000
#Effective number of random elements weighted by wcol*wsys: 2008406.000000
#Effective redshift value from data 0.330336
#Effective redshift value from randoms 0.330106
#Size of the Box 2500.000000 Mpc/h
#Area of the survey used 2501.000000 deg^2
#Value of alpha: 0.049557
#Normalization using data file
#Normalization using density
#Normalization 1.843873
#Shot noise factor 1.000000
#Shot noise value 3663.341533
#Type of Computation: FFT
#Number of grid cells: 512
#Type of Mass Assigment: TSC
#Type of Yamamoto: GridCenter
#Number of Interlacing steps: 2
#Grid Correction: yes
#Value of Om=0.310000
#Quadrupole as L2
#Octopole as L3
#Hexadecapole as L2L2
#k-centerbin	 k-eff	 Monopole-Pshotnoise	 Dipole	 Quadrupole	 Octopole	 Hexadecapole	 number of modes	 Pshotnoise
0.005000 0.007385 26788.091865 -8558.683854 -13390.942481 -16656.887958 -8421.239077 250 3663.341533
0.015000 0.016012 49540.387743 521.128646 5587.802743 -850.764647 -16760.485385 1852 3663.341533
0.025000 0.025646 46183.889919 670.336843 8043.765017 1836.375472 -24600.603536 5020 3663.341533
0.035000 0.035469 37023.494284 1295.816899 -3638.659013 -1318.134826 11460.656774 9756 3663.341533
0.045000 0.045368 30411.643692 720.163161 128.218269 -657.828668 -6545.288277 16108 3663.341533
0.055000 0.055314 25231.744212 215.964556 -4824.715135 723.884966 -2024.626977 24064 3663.341533
0.065000 0.065258 22376.840973 487.811627 -2135.509582 -1178.209218 -3031.613557 33396 3663.341533
0.075000 0.075209 19812.185335 368.565473 -538.810213 -249.973891 -2064.779297 44596 3663.341533
0.085000 0.085175 16037.470545 485.564741 -316.596503 540.287089 1256.215472 57124 3663.341533
0.095000 0.095157 12711.169087 311.854195 -1139.581934 -208.721402 -549.283288 71620 3663.341533
0.105000 0.105162 10953.435862 189.147170 -204.794770 134.172327 1083.357209 87552 3663.341533
0.115000 0.115148 10329.268914 59.376980 -1061.985549 -26.116048 -276.480019 104524 3663.341533
0.125000 0.125146 9376.609054 139.227458 -1238.501198 -34.509136 429.878976 124228 3663.341533
0.135000 0.135146 8521.820330 132.885356 -960.203892 56.457934 272.376036 144204 3663.341533
0.145000 0.145132 7291.819874 153.916699 -1290.093002 -55.279454 899.540729 166492 3663.341533
0.155000 0.155114 6183.535222 135.642640 -1035.276494 1.920423 724.093536 189964 3663.341533
0.165000 0.165102 5341.671764 56.613474 -831.970991 -129.134768 -0.828222 215640 3663.341533
0.175000 0.175105 5470.719319 83.040810 -476.074142 95.781578 -123.376264 242836 3663.341533
0.185000 0.185097 4776.214082 79.962658 -830.651194 -117.047693 359.122845 270556 3663.341533
0.195000 0.195085 4285.666439 63.767574 -663.721884 6.102800 300.307386 301084 3663.341533
0.205000 0.205080 3985.887006 48.272529 -1174.630032 145.409039 223.232978 332628 3663.341533
0.215000 0.215092 3714.939595 59.697702 -1240.923547 -146.529986 10.637807 367216 3663.341533
0.225000 0.225099 3269.951518 66.002867 -581.686476 10.839913 188.153105 400444 3663.341533
0.235000 0.235081 3058.027693 47.291144 -795.504192 3.015900 526.662407 436500 3663.341533
0.245000 0.245077 2923.080065 34.991591 -1033.370240 13.142434 426.589554 475900 3663.341533
0.255000 0.255082 2627.654817 44.079138 -938.842991 -30.373683 504.531210 514900 3663.341533
0.265000 0.265074 2427.587231 48.829159 -756.146114 -70.812066 190.514162 555408 3663.341533
0.275000 0.275066 2352.732283 31.103225 -718.614146 42.951038 14.076781 598684 3663.341533
0.285000 0.285066 2170.664684 51.613255 -825.862647 6.354048 493.951779 643228 3663.341533
0.295000 0.295058 1950.644940 44.700478 -812.410117 -14.066024 449.697256 688036 3663.341533
