#Data file /home/DATA/sbrieden/Patchy_dr12_mocks/postrecon/original/Patchy-Mocks-DR12CMASS-N-V6C-Portsmouth-mass_f0784b1850s10_0047.dat
#Random file /home/DATA/sbrieden/Patchy_dr12_mocks/postrecon/original/Patchy-Mocks-DR12CMASS-N-V6C-Portsmouth-mass_f0784b1850s10_0047.ran
#Number of data elements used: 586280
#Number of random elements used: 11777340
#Effective number of data elements weighted by wcol: 586280.000000
#Effective number of random elements weighted by wcol: 11777340.000000
#Effective number of data elements weighted by wcol*wsys: 586280.000000
#Effective number of random elements weighted by wcol*wsys: 11777340.000000
#Effective redshift value from data 0.598122
#Effective redshift value from randoms 0.597530
#Size of the Box 3700.000000 Mpc/h
#Area of the survey used 6851.000000 deg^2
#Value of alpha: 0.050056
#Normalization using data file
#Normalization using density
#Normalization 11.044709
#Shot noise factor 1.000000
#Shot noise value 4993.685051
#Type of Computation: FFT
#Number of grid cells: 512
#Type of Mass Assigment: TSC
#Type of Yamamoto: GridCenter
#Number of Interlacing steps: 2
#Grid Correction: yes
#Value of Om=0.310000
#Quadrupole as L2
#Octopole as L3
#Hexadecapole as L2L2
#k-centerbin	 k-eff	 Monopole-Pshotnoise	 Dipole	 Quadrupole	 Octopole	 Hexadecapole	 number of modes	 Pshotnoise
0.005000 0.007485 38411.308226 -2218.183404 -342.169885 5971.355798 17840.496953 846 4993.685051
0.015000 0.016072 57089.912009 688.671604 -2774.183433 -3021.735121 -3658.383415 6012 4993.685051
0.025000 0.025646 46816.533259 1015.429053 2608.059559 -1081.171803 -10403.127120 16172 4993.685051
0.035000 0.035469 34549.354833 415.792228 -591.823442 1800.289287 4252.462685 31764 4993.685051
0.045000 0.045378 27672.372781 410.980927 -3924.619587 -103.596523 1253.323417 52164 4993.685051
0.055000 0.055280 23446.314063 306.676554 -3401.669056 -533.812378 -145.747376 77396 4993.685051
0.065000 0.065232 19963.666759 238.955206 -2240.389351 3.786452 1966.214017 108936 4993.685051
0.075000 0.075229 17280.031228 112.923041 -2003.739463 105.608855 576.038717 144980 4993.685051
0.085000 0.085193 14687.780007 239.243553 -919.820344 -140.935213 1028.364591 184854 4993.685051
0.095000 0.095166 12328.442892 181.796259 -571.245367 -66.201968 -462.162569 232260 4993.685051
0.105000 0.105155 10686.508358 151.872145 -587.080312 -14.658736 102.394045 282884 4993.685051
0.115000 0.115131 9272.153707 66.896691 -1306.647611 51.112270 555.512548 339084 4993.685051
0.125000 0.125124 8736.431849 86.718504 -1075.857752 -60.320786 263.362388 401864 4993.685051
0.135000 0.135125 7899.661724 76.269060 -1011.045159 25.236135 163.590529 468084 4993.685051
0.145000 0.145120 7278.218644 116.530350 -993.874698 -141.119733 -1.559805 539940 4993.685051
0.155000 0.155118 6097.430272 72.057062 -600.982146 65.312490 -226.909611 617324 4993.685051
0.165000 0.165105 5603.338671 67.578873 -742.583388 -24.797132 -148.561244 697452 4993.685051
0.175000 0.175088 5046.877124 62.911646 -652.058526 8.681995 384.272809 785846 4993.685051
0.185000 0.185089 4709.176533 59.188589 -814.873754 -20.644606 269.861456 879528 4993.685051
0.195000 0.195093 4409.825655 39.469250 -638.470646 3.305513 142.651369 976596 4993.685051
0.205000 0.205084 4060.008856 67.124974 -701.588277 -21.582794 -53.930022 1077212 4993.685051
0.215000 0.215076 3700.178946 52.751979 -721.729302 8.922916 34.662869 1186908 4993.685051
0.225000 0.225076 3338.573577 61.731719 -666.797025 -16.086111 256.346995 1299452 4993.685051
0.235000 0.235073 3056.374953 51.512463 -753.864747 -9.954021 67.703096 1417356 4993.685051
0.245000 0.245067 2821.568504 46.209526 -633.019736 6.533583 231.582120 1539600 4993.685051
0.255000 0.255064 2708.890197 43.893349 -639.233633 -10.489948 283.727483 1669820 4993.685051
0.265000 0.265061 2470.131673 61.454259 -594.333297 -23.449849 111.934449 1801086 4993.685051
0.275000 0.275060 2289.354462 45.265686 -634.457718 -2.988815 254.866263 1942244 4993.685051
0.285000 0.285062 2147.657933 34.776094 -711.062280 19.146377 172.608341 2084796 4993.685051
0.295000 0.295057 2027.350057 53.661359 -652.805884 -14.851382 267.292942 2231868 4993.685051
