#Data file /home/DATA/sbrieden/Patchy_dr12_mocks/postrecon/original/Patchy-Mocks-DR12CMASS-N-V6C-Portsmouth-mass_f0784b1850s10_0069.dat
#Random file /home/DATA/sbrieden/Patchy_dr12_mocks/postrecon/original/Patchy-Mocks-DR12CMASS-N-V6C-Portsmouth-mass_f0784b1850s10_0069.ran
#Number of data elements used: 585907
#Number of random elements used: 11783099
#Effective number of data elements weighted by wcol: 585907.000000
#Effective number of random elements weighted by wcol: 11783099.000000
#Effective number of data elements weighted by wcol*wsys: 585907.000000
#Effective number of random elements weighted by wcol*wsys: 11783099.000000
#Effective redshift value from data 0.597842
#Effective redshift value from randoms 0.597780
#Size of the Box 3700.000000 Mpc/h
#Area of the survey used 6851.000000 deg^2
#Value of alpha: 0.049833
#Normalization using data file
#Normalization using density
#Normalization 11.014882
#Shot noise factor 1.000000
#Shot noise value 4973.909715
#Type of Computation: FFT
#Number of grid cells: 512
#Type of Mass Assigment: TSC
#Type of Yamamoto: GridCenter
#Number of Interlacing steps: 2
#Grid Correction: yes
#Value of Om=0.310000
#Quadrupole as L2
#Octopole as L3
#Hexadecapole as L2L2
#k-centerbin	 k-eff	 Monopole-Pshotnoise	 Dipole	 Quadrupole	 Octopole	 Hexadecapole	 number of modes	 Pshotnoise
0.005000 0.007485 54092.118014 147.052854 -7825.126322 -9937.470739 -12053.359549 846 4973.909715
0.015000 0.016072 50952.317264 39.831653 -15537.225424 -279.282098 4859.583983 6012 4973.909715
0.025000 0.025646 41974.798641 511.425843 -5505.179924 -912.342782 2045.731002 16172 4973.909715
0.035000 0.035469 33438.533103 920.045757 -2424.141272 -492.094961 5384.615779 31764 4973.909715
0.045000 0.045378 27275.104506 226.723019 -2423.693121 75.035481 863.712968 52164 4973.909715
0.055000 0.055280 21881.927840 151.856984 -2033.769203 189.146711 -568.654922 77396 4973.909715
0.065000 0.065232 21182.281871 162.603601 -2201.597212 -98.884328 1611.986533 108936 4973.909715
0.075000 0.075229 17983.875102 315.313409 -1601.498144 -76.503974 -278.440156 144980 4973.909715
0.085000 0.085193 15021.184978 123.430573 -2487.741258 -23.319494 17.219960 184854 4973.909715
0.095000 0.095166 12266.767530 297.249161 -1425.462132 -158.989199 -765.183622 232260 4973.909715
0.105000 0.105155 10152.091184 69.123341 -586.015881 16.609753 108.681957 282884 4973.909715
0.115000 0.115131 9592.574504 101.547845 -1617.726512 -80.819621 -402.842346 339084 4973.909715
0.125000 0.125124 8756.991597 79.624362 -1275.014791 -26.587561 -163.481451 401864 4973.909715
0.135000 0.135125 7859.111288 70.287131 -654.583065 -34.478449 -32.339323 468084 4973.909715
0.145000 0.145120 7169.988365 103.665460 -835.005874 44.997463 -143.149060 539940 4973.909715
0.155000 0.155118 6038.601584 92.227441 -949.777839 -58.919569 145.231475 617324 4973.909715
0.165000 0.165105 5500.511112 66.136419 -631.670898 -19.868834 -148.650687 697452 4973.909715
0.175000 0.175088 5111.768961 47.957433 -788.045714 74.930136 59.998113 785846 4973.909715
0.185000 0.185089 4725.160727 65.956595 -828.636297 -100.993702 444.714236 879528 4973.909715
0.195000 0.195093 4427.800493 42.967472 -441.205934 10.520738 -95.900011 976596 4973.909715
0.205000 0.205084 4075.854914 57.338848 -567.960925 14.646503 -136.600960 1077212 4973.909715
0.215000 0.215076 3691.444064 64.529247 -559.346153 11.571188 232.294858 1186908 4973.909715
0.225000 0.225076 3343.734997 49.028822 -614.414123 -11.086570 222.932065 1299452 4973.909715
0.235000 0.235073 3099.988221 53.835387 -623.958460 -14.927088 98.512099 1417356 4973.909715
0.245000 0.245067 2872.504754 49.256617 -646.672469 -15.044838 137.273339 1539600 4973.909715
0.255000 0.255064 2674.339882 43.221599 -692.263428 14.981578 178.266284 1669820 4973.909715
0.265000 0.265061 2523.822061 55.987655 -569.615963 -20.472171 137.971286 1801086 4973.909715
0.275000 0.275060 2321.732920 44.129623 -680.772500 -0.694584 144.940863 1942244 4973.909715
0.285000 0.285062 2144.382350 51.134684 -622.738358 -8.859601 245.776737 2084796 4973.909715
0.295000 0.295057 2001.217254 43.682092 -600.739233 7.335628 201.259507 2231868 4973.909715
