#Data file /home/DATA/sbrieden/Patchy_dr12_mocks/postrecon/original/Patchy-Mocks-DR12CMASS-N-V6C-Portsmouth-mass_f0784b1850s10_0049.dat
#Random file /home/DATA/sbrieden/Patchy_dr12_mocks/postrecon/original/Patchy-Mocks-DR12CMASS-N-V6C-Portsmouth-mass_f0784b1850s10_0049.ran
#Number of data elements used: 589110
#Number of random elements used: 11770621
#Effective number of data elements weighted by wcol: 589110.000000
#Effective number of random elements weighted by wcol: 11770621.000000
#Effective number of data elements weighted by wcol*wsys: 589110.000000
#Effective number of random elements weighted by wcol*wsys: 11770621.000000
#Effective redshift value from data 0.597857
#Effective redshift value from randoms 0.597753
#Size of the Box 3700.000000 Mpc/h
#Area of the survey used 6851.000000 deg^2
#Value of alpha: 0.050102
#Normalization using data file
#Normalization using density
#Normalization 11.070961
#Shot noise factor 1.000000
#Shot noise value 4963.400217
#Type of Computation: FFT
#Number of grid cells: 512
#Type of Mass Assigment: TSC
#Type of Yamamoto: GridCenter
#Number of Interlacing steps: 2
#Grid Correction: yes
#Value of Om=0.310000
#Quadrupole as L2
#Octopole as L3
#Hexadecapole as L2L2
#k-centerbin	 k-eff	 Monopole-Pshotnoise	 Dipole	 Quadrupole	 Octopole	 Hexadecapole	 number of modes	 Pshotnoise
0.005000 0.007485 26953.905046 -3791.697638 -6504.100480 -1823.254288 3241.393802 846 4963.400217
0.015000 0.016072 48192.381598 520.481006 -4515.247703 -1602.422845 -4872.534837 6012 4963.400217
0.025000 0.025646 41617.846157 78.344952 -2129.418139 -812.950567 -2647.583095 16172 4963.400217
0.035000 0.035469 34574.790687 519.214243 -1779.233613 120.964122 -639.914396 31764 4963.400217
0.045000 0.045378 26636.161186 488.112637 -29.210531 38.701899 -1248.209336 52164 4963.400217
0.055000 0.055280 23991.184732 74.331592 -2470.870837 118.865322 -489.316918 77396 4963.400217
0.065000 0.065232 20530.087292 287.107959 -1441.478591 -71.036656 -962.837817 108936 4963.400217
0.075000 0.075229 18206.880369 164.634276 -1642.441001 -10.902780 573.911855 144980 4963.400217
0.085000 0.085193 15104.879162 336.191858 -1185.157815 -114.989732 157.806626 184854 4963.400217
0.095000 0.095166 12330.554249 144.087634 -1788.694295 -75.722282 -237.494664 232260 4963.400217
0.105000 0.105155 10390.015635 134.436066 -1282.849831 -37.910035 -519.743461 282884 4963.400217
0.115000 0.115131 9300.003560 65.548746 -1494.847144 2.925654 32.566414 339084 4963.400217
0.125000 0.125124 8899.873322 54.806578 -1366.664051 5.826918 714.411465 401864 4963.400217
0.135000 0.135125 8125.890000 103.292152 -1306.011241 -22.471303 98.444295 468084 4963.400217
0.145000 0.145120 7097.384225 102.370023 -432.041174 -99.958076 -29.400446 539940 4963.400217
0.155000 0.155118 6275.948263 102.710906 -730.008926 1.049356 -204.935307 617324 4963.400217
0.165000 0.165105 5546.107373 73.288912 -562.240672 -6.526521 -48.114712 697452 4963.400217
0.175000 0.175088 5037.611506 38.687102 -424.941192 2.053749 17.721427 785846 4963.400217
0.185000 0.185089 4759.315925 73.306357 -613.358346 0.694911 134.546066 879528 4963.400217
0.195000 0.195093 4428.052291 30.264583 -714.311359 28.087176 209.969535 976596 4963.400217
0.205000 0.205084 4081.594324 71.237469 -956.026521 -24.993811 219.173105 1077212 4963.400217
0.215000 0.215076 3598.533616 63.847307 -595.309848 -17.810248 192.689937 1186908 4963.400217
0.225000 0.225076 3320.307029 40.359305 -643.647196 -5.755663 141.938411 1299452 4963.400217
0.235000 0.235073 3075.143584 57.015411 -553.038800 0.050465 153.496828 1417356 4963.400217
0.245000 0.245067 2840.382463 48.235355 -656.564945 -5.859641 219.338688 1539600 4963.400217
0.255000 0.255064 2644.506431 52.250958 -627.202006 -15.457718 208.181472 1669820 4963.400217
0.265000 0.265061 2439.484224 44.811190 -635.880017 21.881472 342.697452 1801086 4963.400217
0.275000 0.275060 2268.059840 46.066689 -768.621776 -8.116132 312.467679 1942244 4963.400217
0.285000 0.285062 2113.121500 46.399045 -737.658612 -14.288155 171.855844 2084796 4963.400217
0.295000 0.295057 2013.247372 47.863102 -768.961229 -10.515667 236.953055 2231868 4963.400217
