#Data file /home/DATA/sbrieden/Patchy_dr12_mocks/postrecon/original/Patchy-Mocks-DR12LOWZ-S-V5C-Portsmouth-mass_f0693b1850s10_0100.dat
#Random file /home/DATA/sbrieden/Patchy_dr12_mocks/postrecon/original/Patchy-Mocks-DR12LOWZ-S-V5C-Portsmouth-mass_f0693b1850s10_0100.ran
#Number of data elements used: 101013
#Number of random elements used: 2001758
#Effective number of data elements weighted by wcol: 101013.000000
#Effective number of random elements weighted by wcol: 2001758.000000
#Effective number of data elements weighted by wcol*wsys: 101013.000000
#Effective number of random elements weighted by wcol*wsys: 2001758.000000
#Effective redshift value from data 0.329722
#Effective redshift value from randoms 0.330424
#Size of the Box 2500.000000 Mpc/h
#Area of the survey used 2501.000000 deg^2
#Value of alpha: 0.050334
#Normalization using data file
#Normalization using density
#Normalization 1.870136
#Shot noise factor 1.000000
#Shot noise value 3644.759846
#Type of Computation: FFT
#Number of grid cells: 512
#Type of Mass Assigment: TSC
#Type of Yamamoto: GridCenter
#Number of Interlacing steps: 2
#Grid Correction: yes
#Value of Om=0.310000
#Quadrupole as L2
#Octopole as L3
#Hexadecapole as L2L2
#k-centerbin	 k-eff	 Monopole-Pshotnoise	 Dipole	 Quadrupole	 Octopole	 Hexadecapole	 number of modes	 Pshotnoise
0.005000 0.007385 31267.392598 -5421.919491 -1914.442823 960.499238 -21755.386174 250 3644.759846
0.015000 0.016012 58838.999474 -2175.733078 -6337.153543 -17803.310055 -37309.021455 1852 3644.759846
0.025000 0.025646 54711.455077 2921.425274 9372.755836 2236.959820 -3389.891825 5020 3644.759846
0.035000 0.035469 33550.974097 491.992125 637.681937 2536.796735 -3395.048961 9756 3644.759846
0.045000 0.045368 28384.356126 746.221546 -6687.335333 11.942883 13494.309341 16108 3644.759846
0.055000 0.055314 25589.511747 637.145594 -3460.716599 -1714.878037 -2207.487890 24064 3644.759846
0.065000 0.065258 22206.518911 28.228590 -1454.355718 -90.067280 -6951.677076 33396 3644.759846
0.075000 0.075209 19077.041574 733.660885 1599.591077 -342.328743 -2824.769223 44596 3644.759846
0.085000 0.085175 16056.248379 209.456545 -815.453292 659.156350 -1691.348442 57124 3644.759846
0.095000 0.095157 13367.989039 306.373753 -2501.030677 -129.786810 1101.563327 71620 3644.759846
0.105000 0.105162 11152.932212 208.352204 -100.368037 -289.011093 1458.917154 87552 3644.759846
0.115000 0.115148 10476.558534 78.243956 -1468.173088 214.158276 -260.981566 104524 3644.759846
0.125000 0.125146 9310.375440 149.932372 -869.036754 88.125944 -155.781828 124228 3644.759846
0.135000 0.135146 8199.111489 213.514787 -1237.866259 -248.682667 939.770060 144204 3644.759846
0.145000 0.145132 7135.557137 159.321309 -1002.951209 -34.102791 -265.811477 166492 3644.759846
0.155000 0.155114 6375.365070 33.734689 -858.530676 93.890461 -319.509620 189964 3644.759846
0.165000 0.165102 5903.899915 127.791397 -484.910162 -115.417289 1262.180323 215640 3644.759846
0.175000 0.175105 5362.915841 52.171471 -362.397744 12.726713 -94.468489 242836 3644.759846
0.185000 0.185097 4965.037032 52.512588 -938.583963 96.395522 193.690369 270556 3644.759846
0.195000 0.195085 4545.871416 63.085373 -901.771480 -35.313763 306.454635 301084 3644.759846
0.205000 0.205080 4090.139635 73.263274 -826.380199 -42.594533 250.652813 332628 3644.759846
0.215000 0.215092 3781.203087 60.286174 -919.416828 19.741535 44.055024 367216 3644.759846
0.225000 0.225099 3435.671195 50.716754 -670.666406 -87.491796 -248.368856 400444 3644.759846
0.235000 0.235081 3079.848347 62.175785 -908.151803 58.281057 -5.852582 436500 3644.759846
0.245000 0.245077 2877.684050 42.603379 -1002.297651 1.811522 362.428761 475900 3644.759846
0.255000 0.255082 2607.103557 51.984276 -896.809817 -74.035599 218.683297 514900 3644.759846
0.265000 0.265074 2506.594268 34.059391 -844.213739 12.122005 -243.697372 555408 3644.759846
0.275000 0.275066 2313.147141 47.195626 -926.064017 16.398600 384.463463 598684 3644.759846
0.285000 0.285066 2080.416007 49.850589 -827.972994 -39.825069 331.800250 643228 3644.759846
0.295000 0.295058 2032.075725 15.988828 -839.516743 36.198548 421.220556 688036 3644.759846
