#Data file /home/DATA/sbrieden/Patchy_dr12_mocks/postrecon/original/Patchy-Mocks-DR12LOWZ-N-V5C-Portsmouth-mass_f0693b1850s10_0067.dat
#Random file /home/DATA/sbrieden/Patchy_dr12_mocks/postrecon/original/Patchy-Mocks-DR12LOWZ-N-V5C-Portsmouth-mass_f0693b1850s10_0067.ran
#Number of data elements used: 232835
#Number of random elements used: 4679670
#Effective number of data elements weighted by wcol: 232835.000000
#Effective number of random elements weighted by wcol: 4679670.000000
#Effective number of data elements weighted by wcol*wsys: 232835.000000
#Effective number of random elements weighted by wcol*wsys: 4679670.000000
#Effective redshift value from data 0.330417
#Effective redshift value from randoms 0.329919
#Size of the Box 2500.000000 Mpc/h
#Area of the survey used 5826.000000 deg^2
#Value of alpha: 0.049779
#Normalization using data file
#Normalization using density
#Normalization 4.316418
#Shot noise factor 1.000000
#Shot noise value 3660.423468
#Type of Computation: FFT
#Number of grid cells: 512
#Type of Mass Assigment: TSC
#Type of Yamamoto: GridCenter
#Number of Interlacing steps: 2
#Grid Correction: yes
#Value of Om=0.310000
#Quadrupole as L2
#Octopole as L3
#Hexadecapole as L2L2
#k-centerbin	 k-eff	 Monopole-Pshotnoise	 Dipole	 Quadrupole	 Octopole	 Hexadecapole	 number of modes	 Pshotnoise
0.005000 0.007385 38791.945662 -11739.256109 4244.867539 -8695.898094 -13099.820104 250 3660.423468
0.015000 0.016012 54307.794906 -2169.998948 -874.305256 4156.077267 -1372.842516 1852 3660.423468
0.025000 0.025646 49834.605511 2128.901452 -1438.348896 -5047.273239 -21285.942392 5020 3660.423468
0.035000 0.035469 38305.097564 1111.859461 -1248.175205 -74.383530 -3094.379786 9756 3660.423468
0.045000 0.045368 31584.270039 1039.114388 937.150089 183.669390 -2415.818634 16108 3660.423468
0.055000 0.055314 25556.282828 354.585786 -2012.100815 44.466058 -1201.257918 24064 3660.423468
0.065000 0.065258 22527.262877 312.463674 -338.531162 -217.285837 -111.063640 33396 3660.423468
0.075000 0.075209 19441.266253 408.718968 543.596013 413.581758 1838.377618 44596 3660.423468
0.085000 0.085175 15981.996545 480.887143 -909.528763 78.343195 2179.759545 57124 3660.423468
0.095000 0.095157 13129.964562 343.137048 -1327.664217 -386.208610 -741.148274 71620 3660.423468
0.105000 0.105162 11408.788284 155.102331 -808.101043 175.149144 -984.701937 87552 3660.423468
0.115000 0.115148 10378.501727 146.755529 -413.091217 -140.354487 903.472198 104524 3660.423468
0.125000 0.125146 9433.320540 76.587566 -638.592527 138.108619 523.950146 124228 3660.423468
0.135000 0.135146 8370.462664 156.433223 -1124.756338 -107.001669 -160.001422 144204 3660.423468
0.145000 0.145132 7370.475175 117.743469 -1267.352719 -38.901223 -159.405187 166492 3660.423468
0.155000 0.155114 6592.314046 146.306845 -1283.695399 35.671823 -495.077022 189964 3660.423468
0.165000 0.165102 5659.025614 99.471215 -794.679754 -120.042243 -162.753781 215640 3660.423468
0.175000 0.175105 5285.356772 61.104694 -548.440788 20.758730 -25.792551 242836 3660.423468
0.185000 0.185097 4777.740085 70.565589 -596.272372 5.075661 -16.564614 270556 3660.423468
0.195000 0.195085 4358.416016 62.937851 -969.715880 -0.280895 67.746459 301084 3660.423468
0.205000 0.205080 4069.086175 67.195248 -897.472153 -8.506571 237.377311 332628 3660.423468
0.215000 0.215092 3637.572310 42.475122 -874.768169 1.075533 204.986764 367216 3660.423468
0.225000 0.225099 3343.165843 57.013573 -807.391224 25.032882 241.542506 400444 3660.423468
0.235000 0.235081 3057.653918 52.189234 -807.035583 -102.697611 132.564941 436500 3660.423468
0.245000 0.245077 2826.698791 62.604640 -788.806604 45.180557 -1.999031 475900 3660.423468
0.255000 0.255082 2601.292026 39.299754 -848.991951 -39.283893 207.082098 514900 3660.423468
0.265000 0.265074 2396.007554 50.284577 -736.516656 -5.561204 99.977527 555408 3660.423468
0.275000 0.275066 2262.489081 28.947657 -785.575801 3.771098 14.934087 598684 3660.423468
0.285000 0.285066 2163.064205 43.593712 -930.401905 -20.889046 269.682430 643228 3660.423468
0.295000 0.295058 2026.808282 29.491397 -791.026624 5.385434 201.967998 688036 3660.423468
