#Data file /home/DATA/sbrieden/Patchy_dr12_mocks/postrecon/original/Patchy-Mocks-DR12CMASS-S-V6C-Portsmouth-mass_f0784b1850s10_0023.dat
#Random file /home/DATA/sbrieden/Patchy_dr12_mocks/postrecon/original/Patchy-Mocks-DR12CMASS-S-V6C-Portsmouth-mass_f0784b1850s10_0023.ran
#Number of data elements used: 215717
#Number of random elements used: 4286822
#Effective number of data elements weighted by wcol: 215717.000000
#Effective number of random elements weighted by wcol: 4286822.000000
#Effective number of data elements weighted by wcol*wsys: 215717.000000
#Effective number of random elements weighted by wcol*wsys: 4286822.000000
#Effective redshift value from data 0.597350
#Effective redshift value from randoms 0.596640
#Size of the Box 3700.000000 Mpc/h
#Area of the survey used 2525.000000 deg^2
#Value of alpha: 0.050630
#Normalization using data file
#Normalization using density
#Normalization 4.108181
#Shot noise factor 1.000000
#Shot noise value 4973.260962
#Type of Computation: FFT
#Number of grid cells: 512
#Type of Mass Assigment: TSC
#Type of Yamamoto: GridCenter
#Number of Interlacing steps: 2
#Grid Correction: yes
#Value of Om=0.310000
#Quadrupole as L2
#Octopole as L3
#Hexadecapole as L2L2
#k-centerbin	 k-eff	 Monopole-Pshotnoise	 Dipole	 Quadrupole	 Octopole	 Hexadecapole	 number of modes	 Pshotnoise
0.005000 0.007485 57257.280815 257.535119 -31734.967338 -11471.875529 -12980.904885 846 4973.260962
0.015000 0.016072 47274.596971 -860.473861 -19829.671662 -3932.569344 -2579.909603 6012 4973.260962
0.025000 0.025646 43798.662892 750.194969 -10759.275452 881.961025 6437.109812 16172 4973.260962
0.035000 0.035469 34647.316119 610.239768 -7333.877104 -1447.929947 9573.984684 31764 4973.260962
0.045000 0.045378 26507.031037 376.174878 -4917.435249 351.230659 -1765.296847 52164 4973.260962
0.055000 0.055280 24025.956662 354.731715 -3825.477576 -926.926983 1580.640793 77396 4973.260962
0.065000 0.065232 20058.143672 123.497646 -1840.732323 190.856469 -1839.078999 108936 4973.260962
0.075000 0.075229 17540.177674 260.840522 -141.177814 -235.643110 -826.416349 144980 4973.260962
0.085000 0.085193 14909.544601 132.179910 -1098.248571 280.286078 -307.334689 184854 4973.260962
0.095000 0.095166 11960.809440 270.714651 -186.054589 -34.472289 785.801704 232260 4973.260962
0.105000 0.105155 10174.553461 93.649618 -1024.664069 -46.399077 496.889076 282884 4973.260962
0.115000 0.115131 9198.181149 63.581825 -1376.669597 75.654587 -427.679775 339084 4973.260962
0.125000 0.125124 8666.657362 92.279124 -1389.483493 -220.236700 -471.348732 401864 4973.260962
0.135000 0.135125 7929.332708 53.110777 -605.403974 47.670263 -475.583188 468084 4973.260962
0.145000 0.145120 7237.774292 113.544798 -445.945024 17.119595 110.545792 539940 4973.260962
0.155000 0.155118 6167.935180 93.685954 -737.058642 -53.123472 -42.253474 617324 4973.260962
0.165000 0.165105 5453.448032 62.005557 -639.770041 34.774476 -143.571586 697452 4973.260962
0.175000 0.175088 5068.136240 48.318101 -520.076754 20.847843 645.685766 785846 4973.260962
0.185000 0.185089 4557.137050 96.587627 -623.375421 -71.708549 387.549492 879528 4973.260962
0.195000 0.195093 4230.032357 43.899279 -415.397189 -5.808102 -15.033160 976596 4973.260962
0.205000 0.205084 3901.566762 56.821005 -628.433145 7.747798 250.536751 1077212 4973.260962
0.215000 0.215076 3455.799539 46.212086 -384.796896 -10.921554 120.208676 1186908 4973.260962
0.225000 0.225076 3369.418434 40.101901 -746.593109 41.368452 301.708660 1299452 4973.260962
0.235000 0.235073 3029.266933 58.963026 -674.383412 -34.536162 317.225683 1417356 4973.260962
0.245000 0.245067 2794.113968 52.947794 -726.019894 -10.825690 42.949465 1539600 4973.260962
0.255000 0.255064 2587.690457 46.596827 -699.319820 11.467666 119.172790 1669820 4973.260962
0.265000 0.265061 2409.107241 43.402275 -857.374996 -3.307482 224.980369 1801086 4973.260962
0.275000 0.275060 2266.682932 50.494346 -791.657486 -23.533367 135.567830 1942244 4973.260962
0.285000 0.285062 2132.669641 42.507868 -768.807609 -4.397909 263.529212 2084796 4973.260962
0.295000 0.295057 1978.939811 47.247427 -875.892749 8.087678 96.424071 2231868 4973.260962
