#Data file /home/DATA/sbrieden/Patchy_dr12_mocks/postrecon/original/Patchy-Mocks-DR12CMASS-N-V6C-Portsmouth-mass_f0784b1850s10_0035.dat
#Random file /home/DATA/sbrieden/Patchy_dr12_mocks/postrecon/original/Patchy-Mocks-DR12CMASS-N-V6C-Portsmouth-mass_f0784b1850s10_0035.ran
#Number of data elements used: 586153
#Number of random elements used: 11783363
#Effective number of data elements weighted by wcol: 586153.000000
#Effective number of random elements weighted by wcol: 11783363.000000
#Effective number of data elements weighted by wcol*wsys: 586153.000000
#Effective number of random elements weighted by wcol*wsys: 11783363.000000
#Effective redshift value from data 0.597960
#Effective redshift value from randoms 0.597571
#Size of the Box 3700.000000 Mpc/h
#Area of the survey used 6851.000000 deg^2
#Value of alpha: 0.049977
#Normalization using data file
#Normalization using density
#Normalization 11.040708
#Shot noise factor 1.000000
#Shot noise value 4983.176259
#Type of Computation: FFT
#Number of grid cells: 512
#Type of Mass Assigment: TSC
#Type of Yamamoto: GridCenter
#Number of Interlacing steps: 2
#Grid Correction: yes
#Value of Om=0.310000
#Quadrupole as L2
#Octopole as L3
#Hexadecapole as L2L2
#k-centerbin	 k-eff	 Monopole-Pshotnoise	 Dipole	 Quadrupole	 Octopole	 Hexadecapole	 number of modes	 Pshotnoise
0.005000 0.007485 31477.929037 -3314.122009 -4049.492664 1793.217164 7384.097470 846 4983.176259
0.015000 0.016072 58092.467684 1054.573216 -5740.435043 -3591.925941 -8284.177680 6012 4983.176259
0.025000 0.025646 44920.023175 237.791397 -216.448675 726.214841 -1603.083621 16172 4983.176259
0.035000 0.035469 32445.104033 593.688402 -2664.547139 516.269280 1386.644876 31764 4983.176259
0.045000 0.045378 27249.229645 297.795706 -3996.075587 -479.808412 -3839.306352 52164 4983.176259
0.055000 0.055280 22544.965001 236.470166 -1325.819511 170.267568 3853.466288 77396 4983.176259
0.065000 0.065232 20417.038492 292.071219 -3311.240766 -303.653227 546.774958 108936 4983.176259
0.075000 0.075229 17790.724023 224.177645 -1327.160566 -74.659656 1623.968011 144980 4983.176259
0.085000 0.085193 15287.322438 121.264030 -1514.880578 126.397255 744.598439 184854 4983.176259
0.095000 0.095166 12329.377569 250.249840 -1146.585399 -69.096764 -212.856006 232260 4983.176259
0.105000 0.105155 10287.573646 145.705177 -1524.457803 -89.388442 -80.635593 282884 4983.176259
0.115000 0.115131 9277.688270 69.112852 -1199.755396 -72.641129 -464.098462 339084 4983.176259
0.125000 0.125124 8631.501097 61.501862 -1096.511060 34.553391 -44.332177 401864 4983.176259
0.135000 0.135125 8013.919451 95.807289 -759.726678 -45.453721 184.908341 468084 4983.176259
0.145000 0.145120 7069.230874 66.006386 -945.921348 64.434858 184.514891 539940 4983.176259
0.155000 0.155118 6211.906240 112.248962 -876.543041 -61.367551 639.695835 617324 4983.176259
0.165000 0.165105 5541.010059 74.633437 -623.279996 -40.390444 62.521384 697452 4983.176259
0.175000 0.175088 4976.616626 44.975595 -367.136155 18.381260 -29.404094 785846 4983.176259
0.185000 0.185089 4612.368247 59.220263 -642.422148 -9.758258 -98.027062 879528 4983.176259
0.195000 0.195093 4348.971899 57.545374 -497.336441 -8.894437 -51.644074 976596 4983.176259
0.205000 0.205084 4061.538144 53.209770 -654.727981 -22.141399 -14.587651 1077212 4983.176259
0.215000 0.215076 3612.374932 65.841839 -760.248391 29.425204 -3.325638 1186908 4983.176259
0.225000 0.225076 3262.917159 45.628423 -570.599802 -11.156109 55.548926 1299452 4983.176259
0.235000 0.235073 3082.599418 62.269381 -608.061850 -47.551728 167.297198 1417356 4983.176259
0.245000 0.245067 2841.366190 30.452231 -600.697002 39.812219 211.357181 1539600 4983.176259
0.255000 0.255064 2762.202524 52.592115 -741.475792 -16.815329 404.538589 1669820 4983.176259
0.265000 0.265061 2479.227807 48.907349 -712.464254 10.510548 244.674832 1801086 4983.176259
0.275000 0.275060 2311.179244 45.677641 -756.114615 -3.665133 419.218446 1942244 4983.176259
0.285000 0.285062 2193.078373 47.397115 -744.165389 -10.882922 330.646872 2084796 4983.176259
0.295000 0.295057 2032.151703 48.806849 -728.126563 -17.804601 214.279961 2231868 4983.176259
