#Data file /home/DATA/sbrieden/Patchy_dr12_mocks/postrecon/original/Patchy-Mocks-DR12LOWZ-N-V5C-Portsmouth-mass_f0693b1850s10_0038.dat
#Random file /home/DATA/sbrieden/Patchy_dr12_mocks/postrecon/original/Patchy-Mocks-DR12LOWZ-N-V5C-Portsmouth-mass_f0693b1850s10_0038.ran
#Number of data elements used: 233786
#Number of random elements used: 4682429
#Effective number of data elements weighted by wcol: 233786.000000
#Effective number of random elements weighted by wcol: 4682429.000000
#Effective number of data elements weighted by wcol*wsys: 233786.000000
#Effective number of random elements weighted by wcol*wsys: 4682429.000000
#Effective redshift value from data 0.329489
#Effective redshift value from randoms 0.330297
#Size of the Box 2500.000000 Mpc/h
#Area of the survey used 5826.000000 deg^2
#Value of alpha: 0.049916
#Normalization using data file
#Normalization using density
#Normalization 4.333694
#Shot noise factor 1.000000
#Shot noise value 3651.186331
#Type of Computation: FFT
#Number of grid cells: 512
#Type of Mass Assigment: TSC
#Type of Yamamoto: GridCenter
#Number of Interlacing steps: 2
#Grid Correction: yes
#Value of Om=0.310000
#Quadrupole as L2
#Octopole as L3
#Hexadecapole as L2L2
#k-centerbin	 k-eff	 Monopole-Pshotnoise	 Dipole	 Quadrupole	 Octopole	 Hexadecapole	 number of modes	 Pshotnoise
0.005000 0.007385 36992.152143 3682.186783 23805.980876 15190.715838 22708.826650 250 3651.186331
0.015000 0.016012 62881.836642 -3002.003538 -13010.163175 3877.736783 4484.391374 1852 3651.186331
0.025000 0.025646 54000.031489 2625.099780 -16194.298893 -2595.184108 -9117.718952 5020 3651.186331
0.035000 0.035469 38965.223223 1272.106037 -397.206785 -2541.281653 8178.596826 9756 3651.186331
0.045000 0.045368 31574.322466 949.572315 -2182.698194 545.251629 1483.283986 16108 3651.186331
0.055000 0.055314 24100.782109 513.799699 -1570.457180 111.445897 3720.829747 24064 3651.186331
0.065000 0.065258 22280.185338 309.462114 -1604.774065 -346.703819 988.758407 33396 3651.186331
0.075000 0.075209 18626.101836 182.803539 -1344.144497 -116.205481 -94.973438 44596 3651.186331
0.085000 0.085175 16683.528208 488.746156 57.270571 -44.638248 -1161.989694 57124 3651.186331
0.095000 0.095157 13391.500693 188.848001 -1985.099103 115.192008 632.927479 71620 3651.186331
0.105000 0.105162 11849.389802 310.276270 -200.559837 -331.654582 -1251.325035 87552 3651.186331
0.115000 0.115148 9900.399887 167.458065 -411.401974 115.501497 -580.963148 104524 3651.186331
0.125000 0.125146 9012.317059 122.400973 -1568.388540 97.827958 -241.627643 124228 3651.186331
0.135000 0.135146 8134.240510 104.838445 -417.351659 -141.451698 758.274526 144204 3651.186331
0.145000 0.145132 7576.787954 113.898656 -461.356564 -50.030603 -302.546174 166492 3651.186331
0.155000 0.155114 6495.032866 101.481835 -1021.397816 211.626029 108.299717 189964 3651.186331
0.165000 0.165102 5756.784616 85.640448 -1330.905590 -100.593672 171.856538 215640 3651.186331
0.175000 0.175105 5273.664914 131.599875 -746.832056 -67.002304 800.914789 242836 3651.186331
0.185000 0.185097 4705.450545 19.496333 -768.783870 39.829070 758.777168 270556 3651.186331
0.195000 0.195085 4552.218981 63.414604 -864.400665 -16.220487 264.522164 301084 3651.186331
0.205000 0.205080 4059.189154 77.305157 -963.039821 -49.212210 339.954741 332628 3651.186331
0.215000 0.215092 3738.841282 69.212998 -783.151836 -9.544770 0.570107 367216 3651.186331
0.225000 0.225099 3351.498374 52.179851 -628.220309 13.453899 420.076943 400444 3651.186331
0.235000 0.235081 3082.432682 40.340562 -928.297271 -4.302772 253.002814 436500 3651.186331
0.245000 0.245077 2907.901415 51.398743 -815.272773 -15.282200 245.156361 475900 3651.186331
0.255000 0.255082 2681.037211 54.730277 -815.429284 -31.872739 164.235953 514900 3651.186331
0.265000 0.265074 2459.801878 34.944212 -827.000176 12.811158 241.230240 555408 3651.186331
0.275000 0.275066 2302.645499 49.521035 -705.491056 -62.866084 94.995374 598684 3651.186331
0.285000 0.285066 2044.415667 49.582325 -647.954643 9.105838 224.753903 643228 3651.186331
0.295000 0.295058 1921.441597 21.114426 -754.003496 4.892405 224.200812 688036 3651.186331
