#Data file /home/DATA/sbrieden/Patchy_dr12_mocks/postrecon/original/Patchy-Mocks-DR12LOWZ-S-V5C-Portsmouth-mass_f0693b1850s10_0028.dat
#Random file /home/DATA/sbrieden/Patchy_dr12_mocks/postrecon/original/Patchy-Mocks-DR12LOWZ-S-V5C-Portsmouth-mass_f0693b1850s10_0028.ran
#Number of data elements used: 100723
#Number of random elements used: 2005797
#Effective number of data elements weighted by wcol: 100723.000000
#Effective number of random elements weighted by wcol: 2005797.000000
#Effective number of data elements weighted by wcol*wsys: 100723.000000
#Effective number of random elements weighted by wcol*wsys: 2005797.000000
#Effective redshift value from data 0.329303
#Effective redshift value from randoms 0.330400
#Size of the Box 2500.000000 Mpc/h
#Area of the survey used 2501.000000 deg^2
#Value of alpha: 0.050078
#Normalization using data file
#Normalization using density
#Normalization 1.864009
#Shot noise factor 1.000000
#Shot noise value 3638.478664
#Type of Computation: FFT
#Number of grid cells: 512
#Type of Mass Assigment: TSC
#Type of Yamamoto: GridCenter
#Number of Interlacing steps: 2
#Grid Correction: yes
#Value of Om=0.310000
#Quadrupole as L2
#Octopole as L3
#Hexadecapole as L2L2
#k-centerbin	 k-eff	 Monopole-Pshotnoise	 Dipole	 Quadrupole	 Octopole	 Hexadecapole	 number of modes	 Pshotnoise
0.005000 0.007385 33482.804990 926.410144 -3562.037168 4287.654563 11644.672542 250 3638.478664
0.015000 0.016012 53736.605186 -3859.102913 15975.744817 1699.449627 -23303.567026 1852 3638.478664
0.025000 0.025646 51571.186813 4753.685983 13049.058419 1012.989565 -4378.435406 5020 3638.478664
0.035000 0.035469 35094.970117 465.423314 6172.756655 1628.053003 -498.436640 9756 3638.478664
0.045000 0.045368 29586.418516 286.726087 -2306.780896 1227.011084 -864.800831 16108 3638.478664
0.055000 0.055314 26301.260936 1091.031257 -750.027520 -287.320801 11907.245562 24064 3638.478664
0.065000 0.065258 22025.873453 -113.523853 2184.053655 1104.704001 3194.577920 33396 3638.478664
0.075000 0.075209 19368.467033 337.276241 -3025.765037 505.481597 5542.560810 44596 3638.478664
0.085000 0.085175 16071.361638 567.625903 -2483.762566 -656.369696 2109.169815 57124 3638.478664
0.095000 0.095157 13306.670675 134.156710 -943.390135 117.703088 462.891516 71620 3638.478664
0.105000 0.105162 11598.368911 331.202010 -748.921917 -209.858312 227.388045 87552 3638.478664
0.115000 0.115148 10110.644713 130.302579 -180.423082 -232.505254 195.719896 104524 3638.478664
0.125000 0.125146 9051.824066 133.563352 -135.112903 191.062057 -125.394461 124228 3638.478664
0.135000 0.135146 7994.819008 78.700850 -623.948642 180.315881 331.693536 144204 3638.478664
0.145000 0.145132 7277.761958 185.381732 -741.106232 -238.251991 1020.357280 166492 3638.478664
0.155000 0.155114 6435.189969 49.426411 -427.936558 90.905031 -231.904253 189964 3638.478664
0.165000 0.165102 5528.507071 176.723510 -230.002555 -67.441396 94.815461 215640 3638.478664
0.175000 0.175105 5176.920812 16.916738 -1163.772036 52.364408 -427.924749 242836 3638.478664
0.185000 0.185097 4774.864712 90.721799 -1172.843365 -48.437553 -185.905143 270556 3638.478664
0.195000 0.195085 4463.266216 24.834512 -706.247508 -55.459756 51.822856 301084 3638.478664
0.205000 0.205080 4164.173286 97.667806 -621.836721 -10.333872 79.703949 332628 3638.478664
0.215000 0.215092 3578.201734 75.546608 -450.455255 14.557963 129.833274 367216 3638.478664
0.225000 0.225099 3205.030194 41.554092 -663.170111 -12.809090 -33.729710 400444 3638.478664
0.235000 0.235081 2995.813968 35.902595 -890.411638 4.322845 49.981396 436500 3638.478664
0.245000 0.245077 2874.996111 50.419897 -806.285196 24.090813 453.241924 475900 3638.478664
0.255000 0.255082 2594.969513 48.070934 -729.204432 -5.550510 408.966753 514900 3638.478664
0.265000 0.265074 2437.721399 38.545134 -801.402947 -75.399709 234.802330 555408 3638.478664
0.275000 0.275066 2245.811844 51.365564 -729.843272 16.601628 62.877991 598684 3638.478664
0.285000 0.285066 2103.342029 18.256882 -735.188777 31.029225 136.276217 643228 3638.478664
0.295000 0.295058 2040.778334 51.395242 -932.653909 -52.585008 185.736013 688036 3638.478664
