#Data file /home/DATA/sbrieden/Patchy_dr12_mocks/postrecon/original/Patchy-Mocks-DR12LOWZ-S-V5C-Portsmouth-mass_f0693b1850s10_0002.dat
#Random file /home/DATA/sbrieden/Patchy_dr12_mocks/postrecon/original/Patchy-Mocks-DR12LOWZ-S-V5C-Portsmouth-mass_f0693b1850s10_0002.ran
#Number of data elements used: 100628
#Number of random elements used: 2002730
#Effective number of data elements weighted by wcol: 100628.000000
#Effective number of random elements weighted by wcol: 2002730.000000
#Effective number of data elements weighted by wcol*wsys: 100628.000000
#Effective number of random elements weighted by wcol*wsys: 2002730.000000
#Effective redshift value from data 0.330728
#Effective redshift value from randoms 0.329700
#Size of the Box 2500.000000 Mpc/h
#Area of the survey used 2501.000000 deg^2
#Value of alpha: 0.050337
#Normalization using data file
#Normalization using density
#Normalization 1.867126
#Shot noise factor 1.000000
#Shot noise value 3664.100008
#Type of Computation: FFT
#Number of grid cells: 512
#Type of Mass Assigment: TSC
#Type of Yamamoto: GridCenter
#Number of Interlacing steps: 2
#Grid Correction: yes
#Value of Om=0.310000
#Quadrupole as L2
#Octopole as L3
#Hexadecapole as L2L2
#k-centerbin	 k-eff	 Monopole-Pshotnoise	 Dipole	 Quadrupole	 Octopole	 Hexadecapole	 number of modes	 Pshotnoise
0.005000 0.007385 47785.773434 1534.795472 12636.627937 -19943.425422 -35072.168107 250 3664.100008
0.015000 0.016012 56419.455835 -529.623798 11843.457003 5250.790880 -26028.285240 1852 3664.100008
0.025000 0.025646 50379.914586 506.162695 -11192.299348 -120.932626 -3600.440773 5020 3664.100008
0.035000 0.035469 39631.597995 1611.111837 3942.420939 -297.215894 10636.088434 9756 3664.100008
0.045000 0.045368 34260.760204 405.218707 -2169.364494 -618.976990 -7227.599150 16108 3664.100008
0.055000 0.055314 26373.102957 830.255145 710.246605 182.829562 -2884.610201 24064 3664.100008
0.065000 0.065258 20813.629437 533.105976 -458.239313 -527.068999 -2145.776344 33396 3664.100008
0.075000 0.075209 18681.897812 460.393301 -832.138857 -145.336691 -2177.914731 44596 3664.100008
0.085000 0.085175 15889.549499 86.103524 -1017.805548 590.000257 203.977334 57124 3664.100008
0.095000 0.095157 14162.884875 240.220448 -2583.158122 -123.343950 1428.582604 71620 3664.100008
0.105000 0.105162 11644.442979 281.693066 -1967.047317 -114.957236 1027.088563 87552 3664.100008
0.115000 0.115148 10359.216051 146.098011 -1245.613517 14.735173 1000.889051 104524 3664.100008
0.125000 0.125146 9486.793983 128.729374 -756.887012 -154.421490 618.939149 124228 3664.100008
0.135000 0.135146 8766.645180 159.721351 -272.532211 -33.524654 357.384076 144204 3664.100008
0.145000 0.145132 7569.445997 155.266294 -404.260101 54.799580 623.374269 166492 3664.100008
0.155000 0.155114 6349.417457 94.579755 -1453.254418 97.679712 133.975203 189964 3664.100008
0.165000 0.165102 5796.833648 94.616298 -944.589503 -170.316049 349.365366 215640 3664.100008
0.175000 0.175105 5160.482299 115.888954 -812.041399 33.132451 -20.736080 242836 3664.100008
0.185000 0.185097 4940.037217 15.601925 -808.138979 -69.282504 155.037640 270556 3664.100008
0.195000 0.195085 4445.693721 97.920323 -739.516288 -28.415860 -122.084026 301084 3664.100008
0.205000 0.205080 4097.172468 52.372284 -766.822166 47.777914 6.103762 332628 3664.100008
0.215000 0.215092 3608.294079 73.072415 -674.989299 -31.313810 275.948534 367216 3664.100008
0.225000 0.225099 3351.366306 61.407803 -653.133393 -3.100825 267.644631 400444 3664.100008
0.235000 0.235081 3046.047332 43.316875 -609.038172 -45.965037 203.706552 436500 3664.100008
0.245000 0.245077 2881.038122 28.099534 -812.061524 42.017251 107.826622 475900 3664.100008
0.255000 0.255082 2664.502775 55.287021 -792.859152 16.620576 274.914363 514900 3664.100008
0.265000 0.265074 2444.465546 47.845563 -1045.935771 9.179413 278.119874 555408 3664.100008
0.275000 0.275066 2290.970024 33.783737 -1025.321111 -42.271448 188.602561 598684 3664.100008
0.285000 0.285066 2106.272712 41.775054 -804.970703 -78.088866 217.506401 643228 3664.100008
0.295000 0.295058 1993.526891 36.988124 -692.874570 48.589877 35.346146 688036 3664.100008
