#Data file /home/DATA/sbrieden/Patchy_dr12_mocks/postrecon/original/Patchy-Mocks-DR12LOWZ-N-V5C-Portsmouth-mass_f0693b1850s10_0060.dat
#Random file /home/DATA/sbrieden/Patchy_dr12_mocks/postrecon/original/Patchy-Mocks-DR12LOWZ-N-V5C-Portsmouth-mass_f0693b1850s10_0060.ran
#Number of data elements used: 234186
#Number of random elements used: 4674022
#Effective number of data elements weighted by wcol: 234186.000000
#Effective number of random elements weighted by wcol: 4674022.000000
#Effective number of data elements weighted by wcol*wsys: 234186.000000
#Effective number of random elements weighted by wcol*wsys: 4674022.000000
#Effective redshift value from data 0.330317
#Effective redshift value from randoms 0.330072
#Size of the Box 2500.000000 Mpc/h
#Area of the survey used 5826.000000 deg^2
#Value of alpha: 0.050139
#Normalization using data file
#Normalization using density
#Normalization 4.343622
#Shot noise factor 1.000000
#Shot noise value 3657.188682
#Type of Computation: FFT
#Number of grid cells: 512
#Type of Mass Assigment: TSC
#Type of Yamamoto: GridCenter
#Number of Interlacing steps: 2
#Grid Correction: yes
#Value of Om=0.310000
#Quadrupole as L2
#Octopole as L3
#Hexadecapole as L2L2
#k-centerbin	 k-eff	 Monopole-Pshotnoise	 Dipole	 Quadrupole	 Octopole	 Hexadecapole	 number of modes	 Pshotnoise
0.005000 0.007385 34751.031754 -14487.473762 -43637.839517 -8115.472398 32228.737873 250 3657.188682
0.015000 0.016012 57864.299733 4528.911555 -9694.804804 -10151.666571 -17481.243491 1852 3657.188682
0.025000 0.025646 39750.603431 -19.186446 4695.549721 3235.252317 5005.398642 5020 3657.188682
0.035000 0.035469 38166.400849 722.479863 -6041.382999 -183.641757 -3925.010637 9756 3657.188682
0.045000 0.045368 30530.487813 956.837879 -1890.982949 -1296.166594 4812.842455 16108 3657.188682
0.055000 0.055314 25536.393552 505.684637 -2060.029005 1022.544487 3266.936324 24064 3657.188682
0.065000 0.065258 21566.617015 62.551924 -226.463139 306.438128 2895.008910 33396 3657.188682
0.075000 0.075209 19947.656557 459.778647 -1800.968401 -489.372791 1728.752607 44596 3657.188682
0.085000 0.085175 16208.689418 419.927908 -479.317292 -229.031632 -2247.762004 57124 3657.188682
0.095000 0.095157 13506.842788 345.441692 -2803.832874 221.232517 10.864373 71620 3657.188682
0.105000 0.105162 11291.315804 217.094108 -1017.680808 -245.071206 1135.999912 87552 3657.188682
0.115000 0.115148 10086.789206 73.214669 -870.223416 149.936789 389.632740 104524 3657.188682
0.125000 0.125146 9463.863450 157.294233 -445.863794 -204.150332 -372.095210 124228 3657.188682
0.135000 0.135146 8485.538710 114.580336 -759.809424 145.233469 85.386849 144204 3657.188682
0.145000 0.145132 7542.025372 141.682713 -872.635248 -68.153593 254.266744 166492 3657.188682
0.155000 0.155114 6520.327856 112.051390 -454.399995 -5.993537 187.072558 189964 3657.188682
0.165000 0.165102 5939.128915 124.078294 -450.922815 -77.885113 82.913430 215640 3657.188682
0.175000 0.175105 5294.599918 55.169652 -199.092564 6.870344 -92.312567 242836 3657.188682
0.185000 0.185097 4994.438970 67.425713 -721.050591 25.905885 196.198207 270556 3657.188682
0.195000 0.195085 4615.689165 71.788195 -490.003355 -20.558319 195.811163 301084 3657.188682
0.205000 0.205080 4080.963446 61.049053 -572.857568 69.245849 191.908568 332628 3657.188682
0.215000 0.215092 3732.543431 52.655089 -834.698636 -31.583128 263.629827 367216 3657.188682
0.225000 0.225099 3370.944549 79.468615 -700.338500 -20.433456 458.582687 400444 3657.188682
0.235000 0.235081 3098.526486 51.118485 -749.237367 -9.260232 196.372747 436500 3657.188682
0.245000 0.245077 2843.270565 25.429609 -775.156920 -6.961637 114.327975 475900 3657.188682
0.255000 0.255082 2683.065757 55.771234 -852.331828 2.130725 80.510934 514900 3657.188682
0.265000 0.265074 2442.213110 49.483627 -967.278947 -28.598712 49.622205 555408 3657.188682
0.275000 0.275066 2248.441894 43.167532 -781.001953 -3.540301 144.502170 598684 3657.188682
0.285000 0.285066 2117.825077 30.746581 -701.721665 -34.630994 186.349868 643228 3657.188682
0.295000 0.295058 2041.403399 48.373186 -691.238146 -5.772563 187.632877 688036 3657.188682
