#Data file /home/DATA/sbrieden/Patchy_dr12_mocks/postrecon/original/Patchy-Mocks-DR12LOWZ-N-V5C-Portsmouth-mass_f0693b1850s10_0031.dat
#Random file /home/DATA/sbrieden/Patchy_dr12_mocks/postrecon/original/Patchy-Mocks-DR12LOWZ-N-V5C-Portsmouth-mass_f0693b1850s10_0031.ran
#Number of data elements used: 233545
#Number of random elements used: 4680936
#Effective number of data elements weighted by wcol: 233545.000000
#Effective number of random elements weighted by wcol: 4680936.000000
#Effective number of data elements weighted by wcol*wsys: 233545.000000
#Effective number of random elements weighted by wcol*wsys: 4680936.000000
#Effective redshift value from data 0.330357
#Effective redshift value from randoms 0.329956
#Size of the Box 2500.000000 Mpc/h
#Area of the survey used 5826.000000 deg^2
#Value of alpha: 0.050018
#Normalization using data file
#Normalization using density
#Normalization 4.334937
#Shot noise factor 1.000000
#Shot noise value 3668.530103
#Type of Computation: FFT
#Number of grid cells: 512
#Type of Mass Assigment: TSC
#Type of Yamamoto: GridCenter
#Number of Interlacing steps: 2
#Grid Correction: yes
#Value of Om=0.310000
#Quadrupole as L2
#Octopole as L3
#Hexadecapole as L2L2
#k-centerbin	 k-eff	 Monopole-Pshotnoise	 Dipole	 Quadrupole	 Octopole	 Hexadecapole	 number of modes	 Pshotnoise
0.005000 0.007385 30192.351025 -14725.680680 -22162.204385 10293.261746 24635.035178 250 3668.530103
0.015000 0.016012 45709.161974 509.070312 -9304.658585 -3177.744446 22411.163918 1852 3668.530103
0.025000 0.025646 47246.038137 946.709369 3480.677843 2072.621335 14900.169585 5020 3668.530103
0.035000 0.035469 38959.258220 945.796349 -8169.864789 -617.781513 1214.208122 9756 3668.530103
0.045000 0.045368 29151.362398 620.238693 -3921.672055 -20.342004 -275.769913 16108 3668.530103
0.055000 0.055314 25930.600047 189.402808 -1585.402870 -397.145591 2673.546317 24064 3668.530103
0.065000 0.065258 21563.074892 645.645551 -270.514450 -103.510090 422.571747 33396 3668.530103
0.075000 0.075209 19680.304847 178.467882 -2772.561008 -271.161920 -652.047230 44596 3668.530103
0.085000 0.085175 16876.674333 542.617133 -1595.953138 -541.967605 -2116.986615 57124 3668.530103
0.095000 0.095157 13624.680687 356.239546 522.193871 157.663554 -1253.187889 71620 3668.530103
0.105000 0.105162 11411.364843 218.369033 -840.015573 16.551264 -35.260931 87552 3668.530103
0.115000 0.115148 10207.356045 78.950401 -1388.973423 146.390859 870.730454 104524 3668.530103
0.125000 0.125146 9406.483024 140.363865 -893.437038 -123.227205 -401.388717 124228 3668.530103
0.135000 0.135146 8234.578786 146.829616 -356.272907 44.164303 327.697575 144204 3668.530103
0.145000 0.145132 7177.831311 122.107283 -744.115855 -38.805282 430.613482 166492 3668.530103
0.155000 0.155114 6502.295724 138.437016 -203.635215 -49.702895 301.485773 189964 3668.530103
0.165000 0.165102 5860.453700 46.573752 -771.627293 52.835027 -37.440572 215640 3668.530103
0.175000 0.175105 5449.051960 75.065362 -960.361396 -70.744090 -300.842759 242836 3668.530103
0.185000 0.185097 4834.663809 84.590942 -603.905830 35.732457 -27.549103 270556 3668.530103
0.195000 0.195085 4420.910086 52.849691 -1001.272879 14.467994 -173.179287 301084 3668.530103
0.205000 0.205080 4115.531855 66.218061 -993.221611 -20.092758 81.854956 332628 3668.530103
0.215000 0.215092 3727.066622 62.478219 -955.791951 -60.743952 20.783515 367216 3668.530103
0.225000 0.225099 3397.487622 65.619422 -775.358356 -15.473776 11.794033 400444 3668.530103
0.235000 0.235081 3099.446012 51.397832 -919.608761 0.311470 182.372127 436500 3668.530103
0.245000 0.245077 2852.615245 45.660456 -749.955011 -11.084183 249.969198 475900 3668.530103
0.255000 0.255082 2667.400433 33.034705 -900.872004 10.651703 22.116676 514900 3668.530103
0.265000 0.265074 2462.588573 45.506991 -796.410026 4.880929 258.302273 555408 3668.530103
0.275000 0.275066 2247.354187 55.986408 -883.164826 11.570882 304.722048 598684 3668.530103
0.285000 0.285066 2138.556533 34.028427 -804.987561 -76.343275 169.957412 643228 3668.530103
0.295000 0.295058 1965.213902 42.917664 -712.372432 -3.787895 41.243096 688036 3668.530103
