#Data file /home/DATA/sbrieden/Patchy_dr12_mocks/postrecon/original/Patchy-Mocks-DR12CMASS-S-V6C-Portsmouth-mass_f0784b1850s10_0001.dat
#Random file /home/DATA/sbrieden/Patchy_dr12_mocks/postrecon/original/Patchy-Mocks-DR12CMASS-S-V6C-Portsmouth-mass_f0784b1850s10_0001.ran
#Number of data elements used: 210915
#Number of random elements used: 4282853
#Effective number of data elements weighted by wcol: 210915.000000
#Effective number of random elements weighted by wcol: 4282853.000000
#Effective number of data elements weighted by wcol*wsys: 210915.000000
#Effective number of random elements weighted by wcol*wsys: 4282853.000000
#Effective redshift value from data 0.597219
#Effective redshift value from randoms 0.596890
#Size of the Box 3700.000000 Mpc/h
#Area of the survey used 2525.000000 deg^2
#Value of alpha: 0.049455
#Normalization using data file
#Normalization using density
#Normalization 4.010503
#Shot noise factor 1.000000
#Shot noise value 4978.430132
#Type of Computation: FFT
#Number of grid cells: 512
#Type of Mass Assigment: TSC
#Type of Yamamoto: GridCenter
#Number of Interlacing steps: 2
#Grid Correction: yes
#Value of Om=0.310000
#Quadrupole as L2
#Octopole as L3
#Hexadecapole as L2L2
#k-centerbin	 k-eff	 Monopole-Pshotnoise	 Dipole	 Quadrupole	 Octopole	 Hexadecapole	 number of modes	 Pshotnoise
0.005000 0.007485 36097.210885 -4128.350068 -11824.503278 -11475.564564 -22115.522705 846 4978.430132
0.015000 0.016072 44562.111251 -889.340696 19909.765465 4805.562036 427.081365 6012 4978.430132
0.025000 0.025646 44328.042025 1361.627519 8920.686329 2256.175401 9917.964844 16172 4978.430132
0.035000 0.035469 35325.302991 91.678676 -8494.530486 -440.270289 -5006.677901 31764 4978.430132
0.045000 0.045378 27397.908259 676.674147 -3992.910349 -693.047083 -4732.467663 52164 4978.430132
0.055000 0.055280 22287.073812 215.707532 -2405.457448 313.887401 2139.282101 77396 4978.430132
0.065000 0.065232 19693.735052 176.651720 -2062.268130 3.156167 4455.442900 108936 4978.430132
0.075000 0.075229 16828.738746 235.947517 -2174.669573 -26.856074 1286.060348 144980 4978.430132
0.085000 0.085193 13813.218826 217.671950 -2644.353427 -72.152689 150.309476 184854 4978.430132
0.095000 0.095166 11662.189457 238.787313 -2642.936215 -156.309614 681.555973 232260 4978.430132
0.105000 0.105155 9993.138475 87.397362 -1018.099524 -96.960388 304.319613 282884 4978.430132
0.115000 0.115131 9072.654109 43.180435 -1775.312272 55.459257 422.319749 339084 4978.430132
0.125000 0.125124 8410.972479 82.304456 -1289.330055 -159.544183 -290.965235 401864 4978.430132
0.135000 0.135125 7846.660650 82.025505 -1288.794740 117.400225 -529.268411 468084 4978.430132
0.145000 0.145120 6529.074620 107.589979 -619.999251 -105.890303 -73.966580 539940 4978.430132
0.155000 0.155118 6013.823809 59.096248 -318.124370 18.551879 304.044490 617324 4978.430132
0.165000 0.165105 5351.683231 93.469973 -623.215574 -46.888801 -27.090118 697452 4978.430132
0.175000 0.175088 4785.124549 30.421728 -602.694194 17.754473 -42.777677 785846 4978.430132
0.185000 0.185089 4488.431672 62.570711 -874.492716 18.696784 64.830544 879528 4978.430132
0.195000 0.195093 4161.536981 66.189157 -737.420223 -30.338315 3.016958 976596 4978.430132
0.205000 0.205084 3848.953539 43.383913 -644.416787 27.043115 146.813338 1077212 4978.430132
0.215000 0.215076 3444.963516 48.021701 -814.014984 -19.843331 -203.653329 1186908 4978.430132
0.225000 0.225076 3161.227273 62.082631 -848.291211 -1.015538 74.506811 1299452 4978.430132
0.235000 0.235073 2886.625293 57.038091 -719.247122 -28.123351 171.009228 1417356 4978.430132
0.245000 0.245067 2734.503702 45.852212 -649.242311 -13.434282 253.447845 1539600 4978.430132
0.255000 0.255064 2569.144028 40.755631 -610.961319 8.832666 106.439988 1669820 4978.430132
0.265000 0.265061 2414.270468 44.132123 -905.443079 5.809705 197.318951 1801086 4978.430132
0.275000 0.275060 2240.391340 49.506776 -725.273549 -23.585298 385.228402 1942244 4978.430132
0.285000 0.285062 2096.267168 47.708721 -736.592636 -19.563510 375.028763 2084796 4978.430132
0.295000 0.295057 1954.396419 48.494545 -705.668938 -7.381191 194.590999 2231868 4978.430132
