#Data file /home/DATA/sbrieden/Patchy_dr12_mocks/postrecon/original/Patchy-Mocks-DR12LOWZ-S-V5C-Portsmouth-mass_f0693b1850s10_0037.dat
#Random file /home/DATA/sbrieden/Patchy_dr12_mocks/postrecon/original/Patchy-Mocks-DR12LOWZ-S-V5C-Portsmouth-mass_f0693b1850s10_0037.ran
#Number of data elements used: 101449
#Number of random elements used: 2003649
#Effective number of data elements weighted by wcol: 101449.000000
#Effective number of random elements weighted by wcol: 2003649.000000
#Effective number of data elements weighted by wcol*wsys: 101449.000000
#Effective number of random elements weighted by wcol*wsys: 2003649.000000
#Effective redshift value from data 0.330519
#Effective redshift value from randoms 0.329966
#Size of the Box 2500.000000 Mpc/h
#Area of the survey used 2501.000000 deg^2
#Value of alpha: 0.050763
#Normalization using data file
#Normalization using density
#Normalization 1.883185
#Shot noise factor 1.000000
#Shot noise value 3670.061051
#Type of Computation: FFT
#Number of grid cells: 512
#Type of Mass Assigment: TSC
#Type of Yamamoto: GridCenter
#Number of Interlacing steps: 2
#Grid Correction: yes
#Value of Om=0.310000
#Quadrupole as L2
#Octopole as L3
#Hexadecapole as L2L2
#k-centerbin	 k-eff	 Monopole-Pshotnoise	 Dipole	 Quadrupole	 Octopole	 Hexadecapole	 number of modes	 Pshotnoise
0.005000 0.007385 53175.310618 -8914.202778 -22172.373163 -7960.097121 -20592.529342 250 3670.061051
0.015000 0.016012 39042.386380 1826.633506 -24250.387863 -8444.948468 -194.916395 1852 3670.061051
0.025000 0.025646 41754.863849 -484.182356 -19965.412458 -2161.877558 11345.464710 5020 3670.061051
0.035000 0.035469 36875.911931 1546.016638 -10657.488223 -4567.708515 4498.402233 9756 3670.061051
0.045000 0.045368 29580.704229 173.748874 6030.937195 3648.845896 11458.838845 16108 3670.061051
0.055000 0.055314 27678.248249 290.604714 -6124.873043 -889.531843 2339.272645 24064 3670.061051
0.065000 0.065258 23582.748936 833.368410 -682.141953 -376.393939 508.517101 33396 3670.061051
0.075000 0.075209 18986.860795 116.412384 -2671.180002 199.741589 -1278.625336 44596 3670.061051
0.085000 0.085175 16755.095350 367.119635 -3601.112151 -381.106542 -2112.584373 57124 3670.061051
0.095000 0.095157 13124.416107 424.915897 -965.080921 -517.209952 -1853.552583 71620 3670.061051
0.105000 0.105162 12066.232086 109.617887 1461.823307 92.688158 -11.699375 87552 3670.061051
0.115000 0.115148 11010.242676 151.586675 -568.944118 211.014164 -1006.158144 104524 3670.061051
0.125000 0.125146 9608.926516 173.780310 -1223.402327 4.522910 -243.610094 124228 3670.061051
0.135000 0.135146 8579.392539 156.679542 -418.825620 -208.025512 -124.632857 144204 3670.061051
0.145000 0.145132 7232.987377 130.418389 -148.072988 -67.129060 -19.003975 166492 3670.061051
0.155000 0.155114 6523.435467 106.756381 -424.507041 293.308297 215.651810 189964 3670.061051
0.165000 0.165102 5890.868692 143.047841 -875.653136 -195.164551 447.822119 215640 3670.061051
0.175000 0.175105 5132.023682 18.728056 -601.469854 71.155263 328.274002 242836 3670.061051
0.185000 0.185097 5022.147818 65.397605 -331.941063 -4.785320 42.613552 270556 3670.061051
0.195000 0.195085 4397.517153 109.538800 -705.904546 1.383018 334.749842 301084 3670.061051
0.205000 0.205080 3998.167706 61.277877 -486.290418 -59.079615 148.924034 332628 3670.061051
0.215000 0.215092 3528.183048 62.316277 -607.367887 56.517479 199.678951 367216 3670.061051
0.225000 0.225099 3423.519424 22.221552 -587.942056 -42.577130 178.006592 400444 3670.061051
0.235000 0.235081 3075.321269 79.729448 -563.416433 -0.073745 152.163507 436500 3670.061051
0.245000 0.245077 2886.689554 17.465550 -820.757870 70.947698 343.961599 475900 3670.061051
0.255000 0.255082 2695.542223 60.780612 -792.872108 -63.453540 480.477392 514900 3670.061051
0.265000 0.265074 2486.350243 38.210335 -747.033060 -1.578985 208.290517 555408 3670.061051
0.275000 0.275066 2309.837327 32.907165 -741.129591 21.806309 505.023915 598684 3670.061051
0.285000 0.285066 2158.789398 56.392932 -715.886970 -80.432631 313.285563 643228 3670.061051
0.295000 0.295058 1952.811853 23.064663 -720.877107 69.527791 227.227630 688036 3670.061051
