#Data file /home/DATA/sbrieden/Patchy_dr12_mocks/postrecon/original/Patchy-Mocks-DR12LOWZ-N-V5C-Portsmouth-mass_f0693b1850s10_0040.dat
#Random file /home/DATA/sbrieden/Patchy_dr12_mocks/postrecon/original/Patchy-Mocks-DR12LOWZ-N-V5C-Portsmouth-mass_f0693b1850s10_0040.ran
#Number of data elements used: 235882
#Number of random elements used: 4674341
#Effective number of data elements weighted by wcol: 235882.000000
#Effective number of random elements weighted by wcol: 4674341.000000
#Effective number of data elements weighted by wcol*wsys: 235882.000000
#Effective number of random elements weighted by wcol*wsys: 4674341.000000
#Effective redshift value from data 0.330362
#Effective redshift value from randoms 0.329812
#Size of the Box 2500.000000 Mpc/h
#Area of the survey used 5826.000000 deg^2
#Value of alpha: 0.050585
#Normalization using data file
#Normalization using density
#Normalization 4.379625
#Shot noise factor 1.000000
#Shot noise value 3670.820363
#Type of Computation: FFT
#Number of grid cells: 512
#Type of Mass Assigment: TSC
#Type of Yamamoto: GridCenter
#Number of Interlacing steps: 2
#Grid Correction: yes
#Value of Om=0.310000
#Quadrupole as L2
#Octopole as L3
#Hexadecapole as L2L2
#k-centerbin	 k-eff	 Monopole-Pshotnoise	 Dipole	 Quadrupole	 Octopole	 Hexadecapole	 number of modes	 Pshotnoise
0.005000 0.007385 25522.157325 -10276.949280 -16585.010292 10505.182744 25853.202354 250 3670.820363
0.015000 0.016012 53906.413325 -1850.428652 -11817.792047 -8151.353479 203.017085 1852 3670.820363
0.025000 0.025646 47154.489340 1872.797287 -1395.313263 17.121706 3741.802831 5020 3670.820363
0.035000 0.035469 36131.465234 494.136482 3718.353757 -773.306105 -6419.653087 9756 3670.820363
0.045000 0.045368 29109.336021 1277.780792 3326.683985 189.965282 -4814.689918 16108 3670.820363
0.055000 0.055314 25702.206460 24.143853 -814.923061 -29.772673 -4985.859828 24064 3670.820363
0.065000 0.065258 23013.221561 453.744323 -3455.278948 226.937408 2454.864266 33396 3670.820363
0.075000 0.075209 18927.831364 526.940067 -126.758109 -16.777771 1034.127747 44596 3670.820363
0.085000 0.085175 16556.484065 324.389986 148.975966 -32.780752 269.555797 57124 3670.820363
0.095000 0.095157 13311.987750 344.246918 -387.179791 39.997226 844.785586 71620 3670.820363
0.105000 0.105162 11397.753629 126.966826 -868.678868 -68.932488 -324.256459 87552 3670.820363
0.115000 0.115148 10202.644688 206.887567 177.028458 -118.205152 213.841970 104524 3670.820363
0.125000 0.125146 9359.541470 61.186650 -630.554772 21.959304 190.623077 124228 3670.820363
0.135000 0.135146 8516.372353 147.131049 -1029.269544 66.357779 -947.695891 144204 3670.820363
0.145000 0.145132 7718.762187 125.273445 -270.664957 -58.111955 678.942475 166492 3670.820363
0.155000 0.155114 6571.859287 161.671722 -669.749449 -8.357171 261.551282 189964 3670.820363
0.165000 0.165102 5892.534264 90.297667 -608.040956 -75.586660 -344.998570 215640 3670.820363
0.175000 0.175105 5288.949293 68.187600 -530.248177 17.274853 472.186253 242836 3670.820363
0.185000 0.185097 4998.240596 58.208995 -422.372650 28.103793 -33.011924 270556 3670.820363
0.195000 0.195085 4598.238277 54.891636 -812.762653 32.009654 -98.661696 301084 3670.820363
0.205000 0.205080 4068.184984 81.375689 -786.458307 -40.100540 -28.510566 332628 3670.820363
0.215000 0.215092 3660.783480 66.161342 -747.018345 21.616621 -5.934919 367216 3670.820363
0.225000 0.225099 3304.681265 47.169444 -772.983864 5.366519 312.349550 400444 3670.820363
0.235000 0.235081 3032.734678 64.298879 -770.363681 -64.367942 105.017849 436500 3670.820363
0.245000 0.245077 2923.782913 29.171311 -917.159311 12.560803 -57.409105 475900 3670.820363
0.255000 0.255082 2623.380040 60.895997 -772.941026 -13.896259 165.209892 514900 3670.820363
0.265000 0.265074 2466.568655 33.506130 -586.691588 0.186408 236.306294 555408 3670.820363
0.275000 0.275066 2269.890707 45.821971 -719.687803 -10.362641 384.362161 598684 3670.820363
0.285000 0.285066 2160.895433 37.901019 -727.365553 -21.078060 77.667843 643228 3670.820363
0.295000 0.295058 2018.398452 35.284399 -836.243584 -5.956138 26.081022 688036 3670.820363
