#Data file /home/DATA/sbrieden/Patchy_dr12_mocks/postrecon/original/Patchy-Mocks-DR12CMASS-S-V6C-Portsmouth-mass_f0784b1850s10_0043.dat
#Random file /home/DATA/sbrieden/Patchy_dr12_mocks/postrecon/original/Patchy-Mocks-DR12CMASS-S-V6C-Portsmouth-mass_f0784b1850s10_0043.ran
#Number of data elements used: 211986
#Number of random elements used: 4284749
#Effective number of data elements weighted by wcol: 211986.000000
#Effective number of random elements weighted by wcol: 4284749.000000
#Effective number of data elements weighted by wcol*wsys: 211986.000000
#Effective number of random elements weighted by wcol*wsys: 4284749.000000
#Effective redshift value from data 0.597398
#Effective redshift value from randoms 0.596693
#Size of the Box 3700.000000 Mpc/h
#Area of the survey used 2525.000000 deg^2
#Value of alpha: 0.049716
#Normalization using data file
#Normalization using density
#Normalization 4.032756
#Shot noise factor 1.000000
#Shot noise value 4976.408406
#Type of Computation: FFT
#Number of grid cells: 512
#Type of Mass Assigment: TSC
#Type of Yamamoto: GridCenter
#Number of Interlacing steps: 2
#Grid Correction: yes
#Value of Om=0.310000
#Quadrupole as L2
#Octopole as L3
#Hexadecapole as L2L2
#k-centerbin	 k-eff	 Monopole-Pshotnoise	 Dipole	 Quadrupole	 Octopole	 Hexadecapole	 number of modes	 Pshotnoise
0.005000 0.007485 31958.599565 -1166.460263 16923.164631 14477.716507 16456.446941 846 4976.408406
0.015000 0.016072 54533.790200 257.830172 -35328.127526 -8769.071100 -3416.261527 6012 4976.408406
0.025000 0.025646 44065.076580 482.271030 -3575.847895 -1002.575076 -18239.174684 16172 4976.408406
0.035000 0.035469 34312.658379 762.590710 -3154.195621 -418.878904 -5016.435827 31764 4976.408406
0.045000 0.045378 26464.147597 215.322560 128.660548 -17.433015 -490.027904 52164 4976.408406
0.055000 0.055280 23021.580719 359.781856 -3655.623586 66.930285 1260.942501 77396 4976.408406
0.065000 0.065232 19977.418286 167.789442 -3403.113823 -351.580216 -57.037493 108936 4976.408406
0.075000 0.075229 17095.589018 177.305071 -1693.018067 140.933835 -1949.249985 144980 4976.408406
0.085000 0.085193 14446.470458 247.348343 -3090.947999 -63.413512 1350.707996 184854 4976.408406
0.095000 0.095166 11569.728024 250.440759 -2154.317490 -173.558082 218.867818 232260 4976.408406
0.105000 0.105155 10061.072562 45.848433 -1160.541359 -69.811335 740.212650 282884 4976.408406
0.115000 0.115131 8989.315921 48.611055 -1510.190812 118.880876 600.712648 339084 4976.408406
0.125000 0.125124 8512.344278 102.711718 -1408.480148 -126.955282 -381.999568 401864 4976.408406
0.135000 0.135125 7850.816732 102.574009 -1045.253087 -145.834151 -193.330318 468084 4976.408406
0.145000 0.145120 7181.856450 70.007398 -951.222635 123.025638 -37.636867 539940 4976.408406
0.155000 0.155118 6059.847978 91.885874 -942.205139 -85.943987 -602.627033 617324 4976.408406
0.165000 0.165105 5320.886467 77.004097 -647.930834 31.124911 465.958542 697452 4976.408406
0.175000 0.175088 4929.097735 46.822303 -550.272269 -17.633508 -111.660079 785846 4976.408406
0.185000 0.185089 4566.206534 45.394585 -835.424474 9.321313 -384.872318 879528 4976.408406
0.195000 0.195093 4372.618956 75.640228 -947.970245 -37.614721 -108.018215 976596 4976.408406
0.205000 0.205084 3886.175492 46.206925 -698.273929 -6.408052 66.857810 1077212 4976.408406
0.215000 0.215076 3534.922390 67.419127 -645.903384 -20.400886 -99.957447 1186908 4976.408406
0.225000 0.225076 3224.550881 43.470301 -527.594769 24.783357 176.762938 1299452 4976.408406
0.235000 0.235073 3027.114747 52.157140 -915.872038 -9.465577 412.163148 1417356 4976.408406
0.245000 0.245067 2762.485435 56.968449 -842.394294 -41.461108 35.702119 1539600 4976.408406
0.255000 0.255064 2445.842700 37.157176 -685.653559 12.339755 113.764631 1669820 4976.408406
0.265000 0.265061 2444.975835 36.096472 -711.245832 -4.924182 207.440095 1801086 4976.408406
0.275000 0.275060 2310.860850 56.301138 -880.409179 -5.424274 104.803515 1942244 4976.408406
0.285000 0.285062 2074.219272 47.461721 -747.657517 -28.782028 115.514781 2084796 4976.408406
0.295000 0.295057 2040.745741 49.894351 -717.051748 0.111263 234.729538 2231868 4976.408406
