#Data file /home/DATA/sbrieden/Patchy_dr12_mocks/postrecon/original/Patchy-Mocks-DR12LOWZ-N-V5C-Portsmouth-mass_f0693b1850s10_0096.dat
#Random file /home/DATA/sbrieden/Patchy_dr12_mocks/postrecon/original/Patchy-Mocks-DR12LOWZ-N-V5C-Portsmouth-mass_f0693b1850s10_0096.ran
#Number of data elements used: 233414
#Number of random elements used: 4674473
#Effective number of data elements weighted by wcol: 233414.000000
#Effective number of random elements weighted by wcol: 4674473.000000
#Effective number of data elements weighted by wcol*wsys: 233414.000000
#Effective number of random elements weighted by wcol*wsys: 4674473.000000
#Effective redshift value from data 0.329987
#Effective redshift value from randoms 0.330052
#Size of the Box 2500.000000 Mpc/h
#Area of the survey used 5826.000000 deg^2
#Value of alpha: 0.049865
#Normalization using data file
#Normalization using density
#Normalization 4.322181
#Shot noise factor 1.000000
#Shot noise value 3642.027460
#Type of Computation: FFT
#Number of grid cells: 512
#Type of Mass Assigment: TSC
#Type of Yamamoto: GridCenter
#Number of Interlacing steps: 2
#Grid Correction: yes
#Value of Om=0.310000
#Quadrupole as L2
#Octopole as L3
#Hexadecapole as L2L2
#k-centerbin	 k-eff	 Monopole-Pshotnoise	 Dipole	 Quadrupole	 Octopole	 Hexadecapole	 number of modes	 Pshotnoise
0.005000 0.007385 44745.556296 -16900.097145 -30982.991901 -12046.211132 -12536.238555 250 3642.027460
0.015000 0.016012 48559.888712 3112.146675 13628.033296 186.352629 -1810.428892 1852 3642.027460
0.025000 0.025646 46235.122646 918.012388 12127.940428 763.533297 -7050.165788 5020 3642.027460
0.035000 0.035469 37367.982431 995.571280 7385.476771 1775.881405 2496.914140 9756 3642.027460
0.045000 0.045368 30742.213875 825.272584 -597.097257 821.708636 -2166.767724 16108 3642.027460
0.055000 0.055314 25243.934069 366.405596 -2012.825224 -509.104620 653.882363 24064 3642.027460
0.065000 0.065258 21175.241610 275.623518 -2420.356424 118.452536 2838.393983 33396 3642.027460
0.075000 0.075209 19769.397395 344.919807 -1184.725803 157.398198 654.977561 44596 3642.027460
0.085000 0.085175 15903.951348 459.823233 -1958.958314 -235.352090 -260.371394 57124 3642.027460
0.095000 0.095157 13002.641119 320.703230 -781.730347 -330.237100 413.052182 71620 3642.027460
0.105000 0.105162 11205.781987 217.638781 -581.795208 68.588315 -406.063572 87552 3642.027460
0.115000 0.115148 10104.144191 83.864917 -381.534392 127.473053 1082.640597 104524 3642.027460
0.125000 0.125146 9226.701120 93.866301 -938.938387 -49.128298 -486.673293 124228 3642.027460
0.135000 0.135146 8279.855194 136.865425 -827.410975 -159.334160 -678.902083 144204 3642.027460
0.145000 0.145132 7420.993697 134.128701 -530.287635 66.475940 -1.232664 166492 3642.027460
0.155000 0.155114 6316.321949 171.678244 -786.342529 64.285704 336.723072 189964 3642.027460
0.165000 0.165102 5645.144841 33.481934 -931.772892 14.073987 686.607355 215640 3642.027460
0.175000 0.175105 5191.598055 119.471634 -1091.929978 -95.410906 688.402145 242836 3642.027460
0.185000 0.185097 4909.646741 51.844685 -767.954477 -50.049726 73.479345 270556 3642.027460
0.195000 0.195085 4430.861292 37.767902 -558.796738 55.288785 562.289937 301084 3642.027460
0.205000 0.205080 4078.363161 98.489308 -665.157583 -64.352991 -53.214826 332628 3642.027460
0.215000 0.215092 3612.233622 62.065755 -650.536646 -2.345153 111.764514 367216 3642.027460
0.225000 0.225099 3308.919013 38.263135 -642.528769 4.219231 -7.358859 400444 3642.027460
0.235000 0.235081 3064.937799 48.317664 -847.205937 2.638524 -129.494048 436500 3642.027460
0.245000 0.245077 2832.117446 48.100116 -806.896471 13.285084 123.636686 475900 3642.027460
0.255000 0.255082 2616.625723 58.121174 -834.633869 -65.162948 135.300991 514900 3642.027460
0.265000 0.265074 2434.702795 30.782757 -849.653339 50.880592 4.482428 555408 3642.027460
0.275000 0.275066 2247.384463 42.327515 -695.209365 -52.523347 418.172718 598684 3642.027460
0.285000 0.285066 2053.566442 42.916971 -657.434187 -4.043650 84.301739 643228 3642.027460
0.295000 0.295058 1987.371557 31.216194 -786.734119 37.886752 288.805528 688036 3642.027460
