#Data file /home/DATA/sbrieden/Patchy_dr12_mocks/postrecon/original/Patchy-Mocks-DR12LOWZ-S-V5C-Portsmouth-mass_f0693b1850s10_0021.dat
#Random file /home/DATA/sbrieden/Patchy_dr12_mocks/postrecon/original/Patchy-Mocks-DR12LOWZ-S-V5C-Portsmouth-mass_f0693b1850s10_0021.ran
#Number of data elements used: 99130
#Number of random elements used: 2006364
#Effective number of data elements weighted by wcol: 99130.000000
#Effective number of random elements weighted by wcol: 2006364.000000
#Effective number of data elements weighted by wcol*wsys: 99130.000000
#Effective number of random elements weighted by wcol*wsys: 2006364.000000
#Effective redshift value from data 0.329915
#Effective redshift value from randoms 0.330004
#Size of the Box 2500.000000 Mpc/h
#Area of the survey used 2501.000000 deg^2
#Value of alpha: 0.049412
#Normalization using data file
#Normalization using density
#Normalization 1.836949
#Shot noise factor 1.000000
#Shot noise value 3653.431732
#Type of Computation: FFT
#Number of grid cells: 512
#Type of Mass Assigment: TSC
#Type of Yamamoto: GridCenter
#Number of Interlacing steps: 2
#Grid Correction: yes
#Value of Om=0.310000
#Quadrupole as L2
#Octopole as L3
#Hexadecapole as L2L2
#k-centerbin	 k-eff	 Monopole-Pshotnoise	 Dipole	 Quadrupole	 Octopole	 Hexadecapole	 number of modes	 Pshotnoise
0.005000 0.007385 64153.050098 -8335.220306 -9181.589193 -61823.271140 -66349.559185 250 3653.431732
0.015000 0.016012 66400.662243 2076.145137 -26131.449720 -4942.512038 -19844.495637 1852 3653.431732
0.025000 0.025646 50375.816510 2584.077568 3384.268140 -3112.398827 156.345111 5020 3653.431732
0.035000 0.035469 35264.888810 1092.321505 2522.211709 -323.007124 -16270.093702 9756 3653.431732
0.045000 0.045368 25578.493409 457.084437 -269.903116 38.258365 691.278083 16108 3653.431732
0.055000 0.055314 26635.089220 431.564458 -3646.415925 429.553777 3913.415088 24064 3653.431732
0.065000 0.065258 20704.566137 371.398599 1356.843800 351.244139 6730.028071 33396 3653.431732
0.075000 0.075209 19406.214418 -27.222827 -5320.636491 546.284172 3535.740462 44596 3653.431732
0.085000 0.085175 16226.810956 651.151101 -3699.167303 -1138.391140 -479.634849 57124 3653.431732
0.095000 0.095157 12541.697404 425.572612 21.107138 -28.137726 384.545755 71620 3653.431732
0.105000 0.105162 10289.258535 134.555120 -656.787889 80.205323 550.072381 87552 3653.431732
0.115000 0.115148 9552.432567 119.079374 -878.119546 -240.571149 -1373.319272 104524 3653.431732
0.125000 0.125146 9387.975083 79.127892 -288.509091 99.550931 -267.570772 124228 3653.431732
0.135000 0.135146 8268.318074 106.603077 -506.694394 6.235292 7.023182 144204 3653.431732
0.145000 0.145132 7351.021708 141.404649 -473.533979 87.342275 58.106164 166492 3653.431732
0.155000 0.155114 6623.362147 69.681736 -1169.873029 -22.759777 766.381823 189964 3653.431732
0.165000 0.165102 5831.554296 165.082520 -531.691390 -143.017704 -350.640803 215640 3653.431732
0.175000 0.175105 5099.002622 66.723850 -190.861644 -50.333068 -304.900448 242836 3653.431732
0.185000 0.185097 4733.646495 57.582124 -838.322219 148.183830 -89.638949 270556 3653.431732
0.195000 0.195085 4400.309476 62.373975 -421.041971 -33.261585 511.275011 301084 3653.431732
0.205000 0.205080 3978.834182 84.077753 -526.800744 -70.545466 122.111677 332628 3653.431732
0.215000 0.215092 3548.499643 69.525411 -501.004273 36.045350 157.769818 367216 3653.431732
0.225000 0.225099 3145.255975 43.609230 -528.111942 -38.656625 -31.821043 400444 3653.431732
0.235000 0.235081 3015.502970 42.294216 -744.081707 24.122990 87.854175 436500 3653.431732
0.245000 0.245077 2844.006223 52.340145 -892.859084 42.524483 265.265595 475900 3653.431732
0.255000 0.255082 2547.131741 39.647826 -810.254395 -39.572652 372.233114 514900 3653.431732
0.265000 0.265074 2380.481907 40.861501 -636.521896 -24.099994 238.396325 555408 3653.431732
0.275000 0.275066 2225.764035 26.266907 -948.503211 27.014499 147.296149 598684 3653.431732
0.285000 0.285066 2138.573054 38.491871 -899.509854 -28.579820 147.877088 643228 3653.431732
0.295000 0.295058 1997.350495 55.507889 -708.978287 -48.504019 -27.418061 688036 3653.431732
