#Data file /home/DATA/sbrieden/Patchy_dr12_mocks/postrecon/original/Patchy-Mocks-DR12CMASS-S-V6C-Portsmouth-mass_f0784b1850s10_0019.dat
#Random file /home/DATA/sbrieden/Patchy_dr12_mocks/postrecon/original/Patchy-Mocks-DR12CMASS-S-V6C-Portsmouth-mass_f0784b1850s10_0019.ran
#Number of data elements used: 217467
#Number of random elements used: 4282455
#Effective number of data elements weighted by wcol: 217467.000000
#Effective number of random elements weighted by wcol: 4282455.000000
#Effective number of data elements weighted by wcol*wsys: 217467.000000
#Effective number of random elements weighted by wcol*wsys: 4282455.000000
#Effective redshift value from data 0.596810
#Effective redshift value from randoms 0.597224
#Size of the Box 3700.000000 Mpc/h
#Area of the survey used 2525.000000 deg^2
#Value of alpha: 0.050752
#Normalization using data file
#Normalization using density
#Normalization 4.128193
#Shot noise factor 1.000000
#Shot noise value 4931.773216
#Type of Computation: FFT
#Number of grid cells: 512
#Type of Mass Assigment: TSC
#Type of Yamamoto: GridCenter
#Number of Interlacing steps: 2
#Grid Correction: yes
#Value of Om=0.310000
#Quadrupole as L2
#Octopole as L3
#Hexadecapole as L2L2
#k-centerbin	 k-eff	 Monopole-Pshotnoise	 Dipole	 Quadrupole	 Octopole	 Hexadecapole	 number of modes	 Pshotnoise
0.005000 0.007485 55323.067731 89.531712 -35749.752410 -14871.854115 -17603.139469 846 4931.773216
0.015000 0.016072 44349.716261 -330.671598 -3839.255897 -1548.767723 -1312.705994 6012 4931.773216
0.025000 0.025646 43179.158681 1013.982736 3072.067070 -1262.298966 -7989.660473 16172 4931.773216
0.035000 0.035469 32395.419280 755.780791 2237.822230 595.295801 8322.784721 31764 4931.773216
0.045000 0.045378 24931.636076 284.991764 -936.122784 933.793183 8121.432563 52164 4931.773216
0.055000 0.055280 22323.867505 52.994998 -2109.386663 -100.559764 69.738080 77396 4931.773216
0.065000 0.065232 20719.867605 82.371132 -3217.735575 174.116759 2255.908985 108936 4931.773216
0.075000 0.075229 17814.663193 400.262672 -1466.941222 -421.682760 1758.075599 144980 4931.773216
0.085000 0.085193 14316.169050 162.453387 -1705.025905 5.966489 -663.335632 184854 4931.773216
0.095000 0.095166 12287.865339 186.845243 -1341.590267 92.289690 499.855232 232260 4931.773216
0.105000 0.105155 10466.697404 84.015519 -983.428569 -113.747709 -111.947357 282884 4931.773216
0.115000 0.115131 9687.555686 125.104543 -1571.474119 -26.340275 279.615533 339084 4931.773216
0.125000 0.125124 8551.804772 55.042885 -731.905166 -3.101168 977.339763 401864 4931.773216
0.135000 0.135125 7926.701762 133.471293 -879.260404 -28.878151 -339.464515 468084 4931.773216
0.145000 0.145120 6816.251830 49.197724 -1160.830415 30.657079 488.928993 539940 4931.773216
0.155000 0.155118 6003.977274 99.002274 -400.108575 -62.186625 -202.994228 617324 4931.773216
0.165000 0.165105 5387.890176 77.645027 -380.984819 -6.208921 262.336895 697452 4931.773216
0.175000 0.175088 4988.621391 36.792738 -833.715102 49.529687 392.471250 785846 4931.773216
0.185000 0.185089 4660.952194 56.698333 -675.345352 -40.341892 61.822955 879528 4931.773216
0.195000 0.195093 4307.515829 66.293184 -746.670427 23.534700 204.511613 976596 4931.773216
0.205000 0.205084 3908.365848 47.508126 -742.285653 -31.045306 385.071399 1077212 4931.773216
0.215000 0.215076 3625.043641 65.775522 -558.067668 -50.539679 -28.542719 1186908 4931.773216
0.225000 0.225076 3328.867276 54.463331 -674.778919 15.054463 8.004835 1299452 4931.773216
0.235000 0.235073 3067.757792 37.068467 -722.049868 42.280535 282.185085 1417356 4931.773216
0.245000 0.245067 2926.167262 50.520362 -667.069937 -35.655426 268.218013 1539600 4931.773216
0.255000 0.255064 2601.088660 52.065749 -827.913005 26.385175 199.367851 1669820 4931.773216
0.265000 0.265061 2456.690229 48.223302 -944.297446 -46.296731 177.119487 1801086 4931.773216
0.275000 0.275060 2217.158140 48.749697 -761.428860 4.199881 247.042745 1942244 4931.773216
0.285000 0.285062 2055.482387 42.858058 -796.138183 -4.498840 117.863588 2084796 4931.773216
0.295000 0.295057 1954.274324 51.429215 -769.380521 -36.876380 196.522328 2231868 4931.773216
