#Data file /home/DATA/sbrieden/Patchy_dr12_mocks/postrecon/original/Patchy-Mocks-DR12CMASS-S-V6C-Portsmouth-mass_f0784b1850s10_0034.dat
#Random file /home/DATA/sbrieden/Patchy_dr12_mocks/postrecon/original/Patchy-Mocks-DR12CMASS-S-V6C-Portsmouth-mass_f0784b1850s10_0034.ran
#Number of data elements used: 213578
#Number of random elements used: 4284576
#Effective number of data elements weighted by wcol: 213578.000000
#Effective number of random elements weighted by wcol: 4284576.000000
#Effective number of data elements weighted by wcol*wsys: 213578.000000
#Effective number of random elements weighted by wcol*wsys: 4284576.000000
#Effective redshift value from data 0.597134
#Effective redshift value from randoms 0.596760
#Size of the Box 3700.000000 Mpc/h
#Area of the survey used 2525.000000 deg^2
#Value of alpha: 0.049940
#Normalization using data file
#Normalization using density
#Normalization 4.054984
#Shot noise factor 1.000000
#Shot noise value 4957.798421
#Type of Computation: FFT
#Number of grid cells: 512
#Type of Mass Assigment: TSC
#Type of Yamamoto: GridCenter
#Number of Interlacing steps: 2
#Grid Correction: yes
#Value of Om=0.310000
#Quadrupole as L2
#Octopole as L3
#Hexadecapole as L2L2
#k-centerbin	 k-eff	 Monopole-Pshotnoise	 Dipole	 Quadrupole	 Octopole	 Hexadecapole	 number of modes	 Pshotnoise
0.005000 0.007485 33348.983849 -3444.085282 -7225.475090 -8231.707646 -12278.892372 846 4957.798421
0.015000 0.016072 52219.699804 -395.156504 716.517616 851.241478 -8606.145122 6012 4957.798421
0.025000 0.025646 41405.315226 574.562731 477.435549 1376.526436 4319.106321 16172 4957.798421
0.035000 0.035469 34936.827114 586.313453 -8446.282385 221.903583 7018.547533 31764 4957.798421
0.045000 0.045378 27376.246344 691.859221 -4159.675065 -1834.022453 3053.967134 52164 4957.798421
0.055000 0.055280 21607.570046 164.381604 -283.238761 738.876591 -1232.575621 77396 4957.798421
0.065000 0.065232 19890.632309 133.688103 -1777.969089 -152.800080 -164.192197 108936 4957.798421
0.075000 0.075229 16597.665770 192.735487 -2456.514708 68.137107 1599.643140 144980 4957.798421
0.085000 0.085193 14668.175627 259.031520 -1251.027874 -60.747237 2348.539269 184854 4957.798421
0.095000 0.095166 11883.840599 171.272518 -1368.855281 19.561088 845.082392 232260 4957.798421
0.105000 0.105155 10068.120114 120.898264 -1781.296496 -49.295518 1334.948066 282884 4957.798421
0.115000 0.115131 9178.775129 78.711974 -1289.982623 -92.977094 -13.977909 339084 4957.798421
0.125000 0.125124 8583.147190 75.739327 -1036.806995 -28.030604 396.669491 401864 4957.798421
0.135000 0.135125 7736.642893 54.340923 -964.299594 8.787755 -103.423425 468084 4957.798421
0.145000 0.145120 6864.142240 120.084109 -487.861796 -25.090040 125.289151 539940 4957.798421
0.155000 0.155118 6001.927271 66.354022 -957.501303 64.361840 330.486641 617324 4957.798421
0.165000 0.165105 5409.697425 69.797243 -1201.701712 -35.546033 301.711376 697452 4957.798421
0.175000 0.175088 4865.975436 66.271256 -650.472552 -42.065758 234.265189 785846 4957.798421
0.185000 0.185089 4762.556813 38.454812 -870.862277 -25.618637 -254.945758 879528 4957.798421
0.195000 0.195093 4294.344896 83.176220 -663.023398 -39.532579 -250.038996 976596 4957.798421
0.205000 0.205084 3999.909203 35.430677 -693.933871 37.115059 160.533288 1077212 4957.798421
0.215000 0.215076 3604.052185 79.217025 -827.723500 -48.266174 -278.064570 1186908 4957.798421
0.225000 0.225076 3193.721510 29.807622 -604.478028 49.110653 -35.744622 1299452 4957.798421
0.235000 0.235073 2977.315910 67.211519 -706.033190 -21.558217 224.103787 1417356 4957.798421
0.245000 0.245067 2764.700197 35.172141 -585.651357 -6.517964 324.301513 1539600 4957.798421
0.255000 0.255064 2660.227652 42.903051 -699.080490 -12.662880 73.454298 1669820 4957.798421
0.265000 0.265061 2478.131252 59.306239 -626.570069 -28.878670 67.325814 1801086 4957.798421
0.275000 0.275060 2200.157422 51.770431 -574.172697 7.176856 -14.859751 1942244 4957.798421
0.285000 0.285062 2096.019253 35.795992 -738.833824 5.708785 145.202757 2084796 4957.798421
0.295000 0.295057 1976.675866 51.946191 -682.977369 -15.658793 197.844888 2231868 4957.798421
