#Data file /home/DATA/sbrieden/Patchy_dr12_mocks/postrecon/original/Patchy-Mocks-DR12CMASS-S-V6C-Portsmouth-mass_f0784b1850s10_0073.dat
#Random file /home/DATA/sbrieden/Patchy_dr12_mocks/postrecon/original/Patchy-Mocks-DR12CMASS-S-V6C-Portsmouth-mass_f0784b1850s10_0073.ran
#Number of data elements used: 215981
#Number of random elements used: 4281681
#Effective number of data elements weighted by wcol: 215981.000000
#Effective number of random elements weighted by wcol: 4281681.000000
#Effective number of data elements weighted by wcol*wsys: 215981.000000
#Effective number of random elements weighted by wcol*wsys: 4281681.000000
#Effective redshift value from data 0.597029
#Effective redshift value from randoms 0.596816
#Size of the Box 3700.000000 Mpc/h
#Area of the survey used 2525.000000 deg^2
#Value of alpha: 0.050505
#Normalization using data file
#Normalization using density
#Normalization 4.101788
#Shot noise factor 1.000000
#Shot noise value 4932.154727
#Type of Computation: FFT
#Number of grid cells: 512
#Type of Mass Assigment: TSC
#Type of Yamamoto: GridCenter
#Number of Interlacing steps: 2
#Grid Correction: yes
#Value of Om=0.310000
#Quadrupole as L2
#Octopole as L3
#Hexadecapole as L2L2
#k-centerbin	 k-eff	 Monopole-Pshotnoise	 Dipole	 Quadrupole	 Octopole	 Hexadecapole	 number of modes	 Pshotnoise
0.005000 0.007485 46882.419593 -2478.607658 -5367.427888 -7188.704709 -20244.881269 846 4932.154727
0.015000 0.016072 48837.201231 -428.730195 -23141.583150 1054.252921 24714.922374 6012 4932.154727
0.025000 0.025646 46235.896749 689.773298 -8004.472370 -1033.479029 13345.704429 16172 4932.154727
0.035000 0.035469 34686.375185 866.987661 547.890676 -847.614382 2618.331598 31764 4932.154727
0.045000 0.045378 27772.793268 446.448543 -3509.111184 503.550403 4757.336425 52164 4932.154727
0.055000 0.055280 22986.516596 131.224561 -4348.325380 103.445880 3507.371555 77396 4932.154727
0.065000 0.065232 20446.172500 127.460996 -2503.595373 -70.375566 249.757805 108936 4932.154727
0.075000 0.075229 17547.478813 237.523517 -1911.011902 -6.345721 1422.260170 144980 4932.154727
0.085000 0.085193 15216.146409 224.874128 -1238.761852 -92.083132 2788.836462 184854 4932.154727
0.095000 0.095166 12381.341400 223.378499 -913.527250 -138.472477 -540.178184 232260 4932.154727
0.105000 0.105155 10150.667945 166.844348 -1307.779734 -22.726803 -447.311748 282884 4932.154727
0.115000 0.115131 9016.292310 68.316268 -1123.265458 -10.324398 -448.126035 339084 4932.154727
0.125000 0.125124 8167.969029 111.195365 -1140.831073 -62.196325 623.938721 401864 4932.154727
0.135000 0.135125 7480.617251 36.907220 -1458.651704 160.615054 917.927018 468084 4932.154727
0.145000 0.145120 6842.436342 72.881922 -1562.014444 -93.475965 735.389458 539940 4932.154727
0.155000 0.155118 6139.721092 115.513431 -908.845594 -127.324565 -206.245780 617324 4932.154727
0.165000 0.165105 5369.470097 59.380815 -525.824418 58.568435 -137.768364 697452 4932.154727
0.175000 0.175088 4873.384256 49.858743 -709.335223 -5.510673 443.339481 785846 4932.154727
0.185000 0.185089 4683.373193 63.023105 -934.512983 -70.071070 -109.040995 879528 4932.154727
0.195000 0.195093 4114.079654 61.906734 -592.377388 37.074112 -34.588393 976596 4932.154727
0.205000 0.205084 3929.843569 35.980800 -942.255799 32.063326 -88.772635 1077212 4932.154727
0.215000 0.215076 3551.076134 70.974018 -794.905705 -34.807411 259.630505 1186908 4932.154727
0.225000 0.225076 3205.682584 45.787454 -619.232403 -19.688363 534.875777 1299452 4932.154727
0.235000 0.235073 2925.833554 50.460675 -704.706509 -4.749332 104.669258 1417356 4932.154727
0.245000 0.245067 2815.112437 50.978159 -761.178296 -15.813400 484.695176 1539600 4932.154727
0.255000 0.255064 2586.303034 51.341798 -620.745920 -8.710381 16.332759 1669820 4932.154727
0.265000 0.265061 2455.290694 27.644917 -804.705120 17.166272 221.519031 1801086 4932.154727
0.275000 0.275060 2303.801258 58.826037 -799.642753 -1.412082 343.064944 1942244 4932.154727
0.285000 0.285062 2032.940286 48.941130 -908.752222 5.285836 691.760011 2084796 4932.154727
0.295000 0.295057 1929.684953 50.618005 -700.493372 -52.759517 348.886716 2231868 4932.154727
