#Data file /home/DATA/sbrieden/Patchy_dr12_mocks/postrecon/original/Patchy-Mocks-DR12CMASS-S-V6C-Portsmouth-mass_f0784b1850s10_0095.dat
#Random file /home/DATA/sbrieden/Patchy_dr12_mocks/postrecon/original/Patchy-Mocks-DR12CMASS-S-V6C-Portsmouth-mass_f0784b1850s10_0095.ran
#Number of data elements used: 216430
#Number of random elements used: 4291872
#Effective number of data elements weighted by wcol: 216430.000000
#Effective number of random elements weighted by wcol: 4291872.000000
#Effective number of data elements weighted by wcol*wsys: 216430.000000
#Effective number of random elements weighted by wcol*wsys: 4291872.000000
#Effective redshift value from data 0.596536
#Effective redshift value from randoms 0.597141
#Size of the Box 3700.000000 Mpc/h
#Area of the survey used 2525.000000 deg^2
#Value of alpha: 0.050409
#Normalization using data file
#Normalization using density
#Normalization 4.109926
#Shot noise factor 1.000000
#Shot noise value 4932.698048
#Type of Computation: FFT
#Number of grid cells: 512
#Type of Mass Assigment: TSC
#Type of Yamamoto: GridCenter
#Number of Interlacing steps: 2
#Grid Correction: yes
#Value of Om=0.310000
#Quadrupole as L2
#Octopole as L3
#Hexadecapole as L2L2
#k-centerbin	 k-eff	 Monopole-Pshotnoise	 Dipole	 Quadrupole	 Octopole	 Hexadecapole	 number of modes	 Pshotnoise
0.005000 0.007485 45272.585104 -2942.241517 14956.607140 1073.520095 -18912.484082 846 4932.698048
0.015000 0.016072 50446.980664 302.531991 -3220.262447 -2097.011939 -14029.792620 6012 4932.698048
0.025000 0.025646 41894.452173 452.099585 -12619.895399 -1725.575005 -11623.368649 16172 4932.698048
0.035000 0.035469 35089.216654 521.698333 -5158.175083 -434.490088 -6361.952375 31764 4932.698048
0.045000 0.045378 27334.705805 569.435199 -5222.241869 -800.911786 -3022.546730 52164 4932.698048
0.055000 0.055280 22849.871613 277.251640 -1860.587605 96.809850 4231.156739 77396 4932.698048
0.065000 0.065232 19666.055819 152.288438 610.192119 -181.775426 239.757659 108936 4932.698048
0.075000 0.075229 18195.111348 140.524405 -278.832213 146.826208 -2025.201263 144980 4932.698048
0.085000 0.085193 15270.881506 231.918729 -2737.146703 172.096304 800.912804 184854 4932.698048
0.095000 0.095166 12316.818472 156.822654 -1415.057097 -121.525830 124.014787 232260 4932.698048
0.105000 0.105155 10234.325882 168.629105 -1819.870156 88.712277 671.731300 282884 4932.698048
0.115000 0.115131 8960.519239 78.806312 -1770.300749 -217.604440 493.813372 339084 4932.698048
0.125000 0.125124 8867.429093 77.307885 -1494.618137 36.880110 211.602421 401864 4932.698048
0.135000 0.135125 7658.982609 92.875850 -1074.490448 -54.280231 157.261185 468084 4932.698048
0.145000 0.145120 7077.000206 87.419169 -1608.586870 -35.129294 -129.582233 539940 4932.698048
0.155000 0.155118 6085.460782 105.169647 -900.301146 -24.870823 -196.104529 617324 4932.698048
0.165000 0.165105 5244.405887 70.042683 -424.041574 -60.348336 169.829765 697452 4932.698048
0.175000 0.175088 4921.322792 45.399794 -328.237082 -5.534643 5.652681 785846 4932.698048
0.185000 0.185089 4776.847724 54.375640 -861.868554 9.867352 50.448660 879528 4932.698048
0.195000 0.195093 4306.490507 60.522199 -692.631222 51.670874 288.789406 976596 4932.698048
0.205000 0.205084 3846.759998 57.388040 -678.625888 -35.490257 313.600291 1077212 4932.698048
0.215000 0.215076 3552.130486 54.230702 -662.590885 -16.804946 238.336201 1186908 4932.698048
0.225000 0.225076 3275.985718 53.879528 -700.711717 -0.455308 410.814449 1299452 4932.698048
0.235000 0.235073 3024.804588 49.504464 -513.402533 -46.630072 4.735234 1417356 4932.698048
0.245000 0.245067 2727.967856 49.782204 -553.498073 38.986443 -119.428027 1539600 4932.698048
0.255000 0.255064 2567.616582 41.454298 -891.748928 -8.088705 75.561366 1669820 4932.698048
0.265000 0.265061 2343.369868 55.430221 -729.425104 -36.258688 24.448069 1801086 4932.698048
0.275000 0.275060 2211.407031 43.390050 -578.635533 7.800870 100.348153 1942244 4932.698048
0.285000 0.285062 2072.283787 36.817962 -763.622706 12.693703 171.280307 2084796 4932.698048
0.295000 0.295057 1900.393244 51.464861 -745.596664 -7.597081 275.641700 2231868 4932.698048
