#Data file /home/DATA/sbrieden/Patchy_dr12_mocks/postrecon/original/Patchy-Mocks-DR12CMASS-N-V6C-Portsmouth-mass_f0784b1850s10_0089.dat
#Random file /home/DATA/sbrieden/Patchy_dr12_mocks/postrecon/original/Patchy-Mocks-DR12CMASS-N-V6C-Portsmouth-mass_f0784b1850s10_0089.ran
#Number of data elements used: 587301
#Number of random elements used: 11776365
#Effective number of data elements weighted by wcol: 587301.000000
#Effective number of random elements weighted by wcol: 11776365.000000
#Effective number of data elements weighted by wcol*wsys: 587301.000000
#Effective number of random elements weighted by wcol*wsys: 11776365.000000
#Effective redshift value from data 0.598032
#Effective redshift value from randoms 0.597663
#Size of the Box 3700.000000 Mpc/h
#Area of the survey used 6851.000000 deg^2
#Value of alpha: 0.049967
#Normalization using data file
#Normalization using density
#Normalization 11.035919
#Shot noise factor 1.000000
#Shot noise value 4972.835646
#Type of Computation: FFT
#Number of grid cells: 512
#Type of Mass Assigment: TSC
#Type of Yamamoto: GridCenter
#Number of Interlacing steps: 2
#Grid Correction: yes
#Value of Om=0.310000
#Quadrupole as L2
#Octopole as L3
#Hexadecapole as L2L2
#k-centerbin	 k-eff	 Monopole-Pshotnoise	 Dipole	 Quadrupole	 Octopole	 Hexadecapole	 number of modes	 Pshotnoise
0.005000 0.007485 49991.484926 -1198.828907 6547.550058 -460.785892 -5564.834885 846 4972.835646
0.015000 0.016072 50859.691450 634.913577 -8208.353500 -821.150027 -2842.106429 6012 4972.835646
0.025000 0.025646 43032.154840 844.885867 -6935.457019 -2313.589340 -4275.140386 16172 4972.835646
0.035000 0.035469 33404.079655 -9.512068 -750.219367 769.539173 -1051.000418 31764 4972.835646
0.045000 0.045378 26691.887256 797.883252 -4541.163023 -718.595833 -1353.711588 52164 4972.835646
0.055000 0.055280 22583.185881 56.115753 -178.935557 12.050319 -1565.805175 77396 4972.835646
0.065000 0.065232 20340.217097 159.092819 -1350.573751 137.460349 906.778889 108936 4972.835646
0.075000 0.075229 17445.464490 329.761843 -1590.335521 -186.177545 691.707988 144980 4972.835646
0.085000 0.085193 14669.355350 183.571213 -1486.039700 25.793909 628.831803 184854 4972.835646
0.095000 0.095166 12323.292344 169.099565 -1177.720217 -42.427918 147.706970 232260 4972.835646
0.105000 0.105155 10714.881121 128.033061 -1054.059017 -0.565830 -89.001803 282884 4972.835646
0.115000 0.115131 9656.122255 54.307628 -1354.794072 -21.329916 321.220017 339084 4972.835646
0.125000 0.125124 8734.765852 88.318891 -826.486405 -45.208856 -462.322744 401864 4972.835646
0.135000 0.135125 8023.779740 129.228719 -693.416214 -61.038580 -189.301471 468084 4972.835646
0.145000 0.145120 7102.729274 83.566569 -758.256308 -10.208736 -265.515145 539940 4972.835646
0.155000 0.155118 6144.282321 69.905388 -649.191423 90.995271 129.174263 617324 4972.835646
0.165000 0.165105 5568.971934 76.644684 -612.021106 -65.902036 42.478828 697452 4972.835646
0.175000 0.175088 5075.268800 58.270034 -568.469981 -0.470048 236.663253 785846 4972.835646
0.185000 0.185089 4801.048062 46.691952 -589.928211 -6.085508 25.183097 879528 4972.835646
0.195000 0.195093 4420.929072 56.647145 -654.589424 -20.077513 291.764048 976596 4972.835646
0.205000 0.205084 4030.732495 64.214115 -639.035975 8.109762 -32.520088 1077212 4972.835646
0.215000 0.215076 3586.238308 58.710222 -466.996806 0.833518 79.797487 1186908 4972.835646
0.225000 0.225076 3234.954286 57.314473 -589.351587 -7.794637 -70.208137 1299452 4972.835646
0.235000 0.235073 3016.154438 46.460577 -794.670398 3.324730 278.992673 1417356 4972.835646
0.245000 0.245067 2808.286767 47.960467 -750.339031 -23.691793 114.694205 1539600 4972.835646
0.255000 0.255064 2662.110071 49.714634 -678.893469 -13.726012 263.757081 1669820 4972.835646
0.265000 0.265061 2498.087182 36.441786 -728.423694 12.854814 48.409790 1801086 4972.835646
0.275000 0.275060 2358.311450 51.891910 -726.555429 -12.023316 264.819977 1942244 4972.835646
0.285000 0.285062 2157.433865 53.339571 -712.952381 -21.337066 86.586544 2084796 4972.835646
0.295000 0.295057 1996.002693 44.313943 -657.668934 -6.156474 194.662608 2231868 4972.835646
