#Data file /home/DATA/sbrieden/Patchy_dr12_mocks/postrecon/original/Patchy-Mocks-DR12CMASS-N-V6C-Portsmouth-mass_f0784b1850s10_0095.dat
#Random file /home/DATA/sbrieden/Patchy_dr12_mocks/postrecon/original/Patchy-Mocks-DR12CMASS-N-V6C-Portsmouth-mass_f0784b1850s10_0095.ran
#Number of data elements used: 585092
#Number of random elements used: 11766796
#Effective number of data elements weighted by wcol: 585092.000000
#Effective number of random elements weighted by wcol: 11766796.000000
#Effective number of data elements weighted by wcol*wsys: 585092.000000
#Effective number of random elements weighted by wcol*wsys: 11766796.000000
#Effective redshift value from data 0.597982
#Effective redshift value from randoms 0.597792
#Size of the Box 3700.000000 Mpc/h
#Area of the survey used 6851.000000 deg^2
#Value of alpha: 0.049761
#Normalization using data file
#Normalization using density
#Normalization 10.985884
#Shot noise factor 1.000000
#Shot noise value 4974.209040
#Type of Computation: FFT
#Number of grid cells: 512
#Type of Mass Assigment: TSC
#Type of Yamamoto: GridCenter
#Number of Interlacing steps: 2
#Grid Correction: yes
#Value of Om=0.310000
#Quadrupole as L2
#Octopole as L3
#Hexadecapole as L2L2
#k-centerbin	 k-eff	 Monopole-Pshotnoise	 Dipole	 Quadrupole	 Octopole	 Hexadecapole	 number of modes	 Pshotnoise
0.005000 0.007485 23810.567092 -1741.789179 8852.798827 6938.428674 8735.360425 846 4974.209040
0.015000 0.016072 48351.812544 -906.085949 189.946382 2371.689095 12641.599908 6012 4974.209040
0.025000 0.025646 45712.714915 616.479329 -7649.882452 -677.322730 3337.446236 16172 4974.209040
0.035000 0.035469 35632.066314 821.015606 -4657.468097 -415.980593 4935.107785 31764 4974.209040
0.045000 0.045378 29091.804188 338.028903 -3131.512617 -380.771329 -4281.748879 52164 4974.209040
0.055000 0.055280 23833.990688 219.725969 -1056.312611 120.028759 867.196741 77396 4974.209040
0.065000 0.065232 20329.361179 327.612310 -2278.785790 -104.448273 1242.031612 108936 4974.209040
0.075000 0.075229 17867.955730 93.347780 -1927.344161 363.394111 1541.335580 144980 4974.209040
0.085000 0.085193 14714.939037 283.478245 -836.462636 -373.966331 364.530992 184854 4974.209040
0.095000 0.095166 12175.294030 192.598419 -828.751508 -27.410634 865.101545 232260 4974.209040
0.105000 0.105155 10685.919325 108.322658 -583.101172 53.553936 173.328768 282884 4974.209040
0.115000 0.115131 9446.471486 72.087694 -715.207477 3.518577 80.981520 339084 4974.209040
0.125000 0.125124 8621.346095 103.703498 -1063.912173 -47.140311 -447.383762 401864 4974.209040
0.135000 0.135125 7930.244202 81.113276 -766.565122 -31.038737 -27.538096 468084 4974.209040
0.145000 0.145120 7034.963543 91.569542 -1025.792267 12.384487 -81.636842 539940 4974.209040
0.155000 0.155118 6159.630151 105.395260 -844.546354 -70.534322 151.785863 617324 4974.209040
0.165000 0.165105 5416.842649 60.379910 -577.970554 23.329602 145.260990 697452 4974.209040
0.175000 0.175088 5031.510864 42.962020 -510.244088 5.825970 224.407869 785846 4974.209040
0.185000 0.185089 4745.236768 68.948643 -844.376719 -21.852354 77.631084 879528 4974.209040
0.195000 0.195093 4337.948493 56.418071 -547.791340 -25.760724 62.031677 976596 4974.209040
0.205000 0.205084 3917.473865 57.896223 -501.253471 1.529913 -98.609150 1077212 4974.209040
0.215000 0.215076 3584.812623 58.018612 -548.967383 15.872653 181.991136 1186908 4974.209040
0.225000 0.225076 3357.204800 51.314736 -623.130379 -6.340528 236.646573 1299452 4974.209040
0.235000 0.235073 3060.168154 43.805938 -653.742193 2.635737 293.277112 1417356 4974.209040
0.245000 0.245067 2857.120668 48.698139 -742.378616 0.811965 138.768733 1539600 4974.209040
0.255000 0.255064 2633.958410 47.461001 -787.297436 -23.565046 140.730450 1669820 4974.209040
0.265000 0.265061 2450.632708 48.900247 -720.917490 -3.955703 129.593708 1801086 4974.209040
0.275000 0.275060 2293.477120 47.364990 -743.129760 5.205497 244.652755 1942244 4974.209040
0.285000 0.285062 2175.516789 47.763741 -811.279456 -28.578259 116.826535 2084796 4974.209040
0.295000 0.295057 2017.568174 47.796211 -731.539509 2.330577 254.920202 2231868 4974.209040
