#Data file /home/DATA/sbrieden/Patchy_dr12_mocks/postrecon/original/Patchy-Mocks-DR12LOWZ-S-V5C-Portsmouth-mass_f0693b1850s10_0057.dat
#Random file /home/DATA/sbrieden/Patchy_dr12_mocks/postrecon/original/Patchy-Mocks-DR12LOWZ-S-V5C-Portsmouth-mass_f0693b1850s10_0057.ran
#Number of data elements used: 100561
#Number of random elements used: 2004599
#Effective number of data elements weighted by wcol: 100561.000000
#Effective number of random elements weighted by wcol: 2004599.000000
#Effective number of data elements weighted by wcol*wsys: 100561.000000
#Effective number of random elements weighted by wcol*wsys: 2004599.000000
#Effective redshift value from data 0.330824
#Effective redshift value from randoms 0.329701
#Size of the Box 2500.000000 Mpc/h
#Area of the survey used 2501.000000 deg^2
#Value of alpha: 0.050327
#Normalization using data file
#Normalization using density
#Normalization 1.867430
#Shot noise factor 1.000000
#Shot noise value 3672.662189
#Type of Computation: FFT
#Number of grid cells: 512
#Type of Mass Assigment: TSC
#Type of Yamamoto: GridCenter
#Number of Interlacing steps: 2
#Grid Correction: yes
#Value of Om=0.310000
#Quadrupole as L2
#Octopole as L3
#Hexadecapole as L2L2
#k-centerbin	 k-eff	 Monopole-Pshotnoise	 Dipole	 Quadrupole	 Octopole	 Hexadecapole	 number of modes	 Pshotnoise
0.005000 0.007385 43235.880720 500.449116 16252.041495 -4012.947683 -23511.190355 250 3672.662189
0.015000 0.016012 53304.500855 -902.041437 34871.015997 12646.506720 21558.575636 1852 3672.662189
0.025000 0.025646 52215.036386 1253.401363 9615.055937 781.501691 -24469.046624 5020 3672.662189
0.035000 0.035469 38671.353698 1221.189815 -39.994070 -1806.444830 -13270.686755 9756 3672.662189
0.045000 0.045368 33074.516883 539.041383 4618.995128 -507.058074 -8927.829487 16108 3672.662189
0.055000 0.055314 25526.678746 655.758131 -2817.853644 1021.548139 -7593.523052 24064 3672.662189
0.065000 0.065258 22069.035083 265.989031 -4066.558801 -388.754479 2541.059577 33396 3672.662189
0.075000 0.075209 20441.755563 371.531430 -1257.848702 -360.531782 2866.224305 44596 3672.662189
0.085000 0.085175 15620.609227 630.161566 -1628.770651 651.485372 -359.138218 57124 3672.662189
0.095000 0.095157 12551.753247 342.493666 -1726.827069 -390.589745 3664.027603 71620 3672.662189
0.105000 0.105162 10951.594129 19.215910 -1039.334788 21.089172 866.381689 87552 3672.662189
0.115000 0.115148 9948.827338 186.601382 -667.661369 -286.340513 3.058761 104524 3672.662189
0.125000 0.125146 9875.450263 53.187084 -335.871420 -50.362970 -913.963811 124228 3672.662189
0.135000 0.135146 8736.671354 193.869042 -460.255226 212.311156 388.747824 144204 3672.662189
0.145000 0.145132 7524.265345 133.558072 -916.190702 -77.149958 1027.044479 166492 3672.662189
0.155000 0.155114 6660.116392 125.063451 -406.987849 29.996333 822.701363 189964 3672.662189
0.165000 0.165102 5702.576608 91.449884 -666.325575 98.537614 244.033875 215640 3672.662189
0.175000 0.175105 5248.386682 47.427808 -1275.203932 -45.385747 584.569650 242836 3672.662189
0.185000 0.185097 4725.841079 91.524841 -752.104904 -117.679579 436.800302 270556 3672.662189
0.195000 0.195085 4564.743646 61.792966 -823.180383 29.074291 -337.202657 301084 3672.662189
0.205000 0.205080 4126.310699 76.789754 -684.283932 -73.521803 -79.929824 332628 3672.662189
0.215000 0.215092 3547.868929 64.504300 -533.241013 36.052669 -70.161636 367216 3672.662189
0.225000 0.225099 3284.427005 49.369243 -955.018526 -26.958389 268.649366 400444 3672.662189
0.235000 0.235081 3103.284516 52.963919 -682.339695 -21.328442 195.632270 436500 3672.662189
0.245000 0.245077 2819.741597 34.340089 -744.273303 -0.408969 -42.928483 475900 3672.662189
0.255000 0.255082 2657.149792 42.995397 -929.907646 -36.980092 -200.563113 514900 3672.662189
0.265000 0.265074 2368.108777 54.127516 -660.008767 50.557763 460.098828 555408 3672.662189
0.275000 0.275066 2280.593341 54.684018 -760.779059 -61.459442 136.686230 598684 3672.662189
0.285000 0.285066 2107.681280 15.421230 -905.295322 43.053701 169.769353 643228 3672.662189
0.295000 0.295058 1985.106846 42.542341 -805.865820 -36.202865 410.791456 688036 3672.662189
