#Data file /home/DATA/sbrieden/Patchy_dr12_mocks/postrecon/original/Patchy-Mocks-DR12LOWZ-N-V5C-Portsmouth-mass_f0693b1850s10_0066.dat
#Random file /home/DATA/sbrieden/Patchy_dr12_mocks/postrecon/original/Patchy-Mocks-DR12LOWZ-N-V5C-Portsmouth-mass_f0693b1850s10_0066.ran
#Number of data elements used: 232910
#Number of random elements used: 4676886
#Effective number of data elements weighted by wcol: 232910.000000
#Effective number of random elements weighted by wcol: 4676886.000000
#Effective number of data elements weighted by wcol*wsys: 232910.000000
#Effective number of random elements weighted by wcol*wsys: 4676886.000000
#Effective redshift value from data 0.330374
#Effective redshift value from randoms 0.329975
#Size of the Box 2500.000000 Mpc/h
#Area of the survey used 5826.000000 deg^2
#Value of alpha: 0.049850
#Normalization using data file
#Normalization using density
#Normalization 4.319875
#Shot noise factor 1.000000
#Shot noise value 3659.628531
#Type of Computation: FFT
#Number of grid cells: 512
#Type of Mass Assigment: TSC
#Type of Yamamoto: GridCenter
#Number of Interlacing steps: 2
#Grid Correction: yes
#Value of Om=0.310000
#Quadrupole as L2
#Octopole as L3
#Hexadecapole as L2L2
#k-centerbin	 k-eff	 Monopole-Pshotnoise	 Dipole	 Quadrupole	 Octopole	 Hexadecapole	 number of modes	 Pshotnoise
0.005000 0.007385 70394.586110 11207.406220 15679.658462 -10775.320435 1369.849719 250 3659.628531
0.015000 0.016012 62455.515974 1838.218382 2602.284083 -2891.466332 -8180.606113 1852 3659.628531
0.025000 0.025646 55399.143983 1496.371791 329.735568 -3699.375041 -36221.892295 5020 3659.628531
0.035000 0.035469 36038.052266 1391.219161 -2279.758525 -1406.691559 -11758.910776 9756 3659.628531
0.045000 0.045368 31255.505416 -100.346409 -1514.406731 908.784019 -2513.426591 16108 3659.628531
0.055000 0.055314 27044.220254 1039.505728 -1682.619840 286.346957 -4166.352611 24064 3659.628531
0.065000 0.065258 22995.928785 165.896013 -2260.654775 -536.081499 4891.639092 33396 3659.628531
0.075000 0.075209 20511.132453 580.346566 431.921029 -209.593449 717.920607 44596 3659.628531
0.085000 0.085175 16194.883416 422.740872 -137.391426 249.580668 -1306.027365 57124 3659.628531
0.095000 0.095157 12952.638825 312.249038 -821.147062 32.270389 -346.874884 71620 3659.628531
0.105000 0.105162 10777.413092 192.919308 -523.085272 62.151895 -435.295262 87552 3659.628531
0.115000 0.115148 9643.108820 124.781453 -940.481801 -195.983191 692.213508 104524 3659.628531
0.125000 0.125146 9332.210748 112.772282 -828.304272 6.690592 -337.076742 124228 3659.628531
0.135000 0.135146 8513.961850 54.826086 -1002.252773 25.012367 -267.190120 144204 3659.628531
0.145000 0.145132 7594.597121 198.790397 -755.626760 -72.093669 86.700476 166492 3659.628531
0.155000 0.155114 6392.322637 140.857351 -920.073808 7.966012 586.061080 189964 3659.628531
0.165000 0.165102 5879.095665 42.150135 -1077.457424 -24.004798 -263.177574 215640 3659.628531
0.175000 0.175105 5275.929457 78.783663 -661.686721 -18.617148 278.349479 242836 3659.628531
0.185000 0.185097 5032.704235 81.954861 -855.530080 12.954946 -58.403471 270556 3659.628531
0.195000 0.195085 4502.465846 76.167937 -930.010407 3.333405 370.763315 301084 3659.628531
0.205000 0.205080 4079.223954 63.577369 -759.111275 -9.067990 438.184938 332628 3659.628531
0.215000 0.215092 3649.049310 74.023811 -767.874609 -22.152475 321.782705 367216 3659.628531
0.225000 0.225099 3312.270282 40.334175 -707.616630 -16.409199 236.811446 400444 3659.628531
0.235000 0.235081 3089.886218 59.928420 -875.684455 -5.306441 114.786360 436500 3659.628531
0.245000 0.245077 2831.796206 38.549976 -702.472409 -17.111156 225.166687 475900 3659.628531
0.255000 0.255082 2621.136857 54.175995 -759.581588 -15.906402 -47.224011 514900 3659.628531
0.265000 0.265074 2394.153122 24.720995 -765.726779 27.851411 380.879660 555408 3659.628531
0.275000 0.275066 2276.257806 56.264248 -747.965555 -35.394597 329.992783 598684 3659.628531
0.285000 0.285066 2121.222204 40.182241 -863.541286 -14.986348 173.990975 643228 3659.628531
0.295000 0.295058 1908.372711 38.092534 -767.950890 14.644234 321.110684 688036 3659.628531
