#Data file /home/DATA/sbrieden/Patchy_dr12_mocks/postrecon/original/Patchy-Mocks-DR12LOWZ-N-V5C-Portsmouth-mass_f0693b1850s10_0004.dat
#Random file /home/DATA/sbrieden/Patchy_dr12_mocks/postrecon/original/Patchy-Mocks-DR12LOWZ-N-V5C-Portsmouth-mass_f0693b1850s10_0004.ran
#Number of data elements used: 232674
#Number of random elements used: 4677805
#Effective number of data elements weighted by wcol: 232674.000000
#Effective number of random elements weighted by wcol: 4677805.000000
#Effective number of data elements weighted by wcol*wsys: 232674.000000
#Effective number of random elements weighted by wcol*wsys: 4677805.000000
#Effective redshift value from data 0.330534
#Effective redshift value from randoms 0.329794
#Size of the Box 2500.000000 Mpc/h
#Area of the survey used 5826.000000 deg^2
#Value of alpha: 0.049876
#Normalization using data file
#Normalization using density
#Normalization 4.320130
#Shot noise factor 1.000000
#Shot noise value 3669.959079
#Type of Computation: FFT
#Number of grid cells: 512
#Type of Mass Assigment: TSC
#Type of Yamamoto: GridCenter
#Number of Interlacing steps: 2
#Grid Correction: yes
#Value of Om=0.310000
#Quadrupole as L2
#Octopole as L3
#Hexadecapole as L2L2
#k-centerbin	 k-eff	 Monopole-Pshotnoise	 Dipole	 Quadrupole	 Octopole	 Hexadecapole	 number of modes	 Pshotnoise
0.005000 0.007385 52700.375527 -8255.272019 -1016.820985 12937.280290 -1895.469149 250 3669.959079
0.015000 0.016012 49998.208968 1443.866177 -10943.922185 -2195.422338 17906.600837 1852 3669.959079
0.025000 0.025646 45888.130513 806.523139 -2898.764743 -1103.141352 -2203.766366 5020 3669.959079
0.035000 0.035469 33820.076963 1411.704561 697.896656 -2074.261119 -3600.149474 9756 3669.959079
0.045000 0.045368 30068.468864 152.053711 -571.737136 2953.006047 5436.464299 16108 3669.959079
0.055000 0.055314 25796.176394 521.324961 -1280.038884 -2352.037595 943.642976 24064 3669.959079
0.065000 0.065258 23707.824904 451.070797 2657.245519 1019.105997 -145.778319 33396 3669.959079
0.075000 0.075209 20506.864769 312.832523 -2349.239336 63.283634 2293.070069 44596 3669.959079
0.085000 0.085175 16274.313900 482.057094 -1484.027500 -197.307751 -392.051608 57124 3669.959079
0.095000 0.095157 13513.707018 166.158361 -1826.117948 118.420379 659.446300 71620 3669.959079
0.105000 0.105162 11454.427636 289.435772 -1495.783838 -351.466618 -299.922619 87552 3669.959079
0.115000 0.115148 10175.309928 131.657673 -356.399049 -8.280979 -820.996870 104524 3669.959079
0.125000 0.125146 9398.494323 103.016417 -725.494954 102.385124 -149.847480 124228 3669.959079
0.135000 0.135146 8794.608015 191.878087 -1372.776246 -205.521298 -930.460241 144204 3669.959079
0.145000 0.145132 7341.745660 106.381103 -923.604327 98.700943 262.409517 166492 3669.959079
0.155000 0.155114 6434.850742 153.102352 -755.214856 -127.586560 -147.857229 189964 3669.959079
0.165000 0.165102 5723.847952 80.185686 -442.447998 69.314119 241.390875 215640 3669.959079
0.175000 0.175105 5154.864581 80.724812 -645.905269 -27.024411 483.393086 242836 3669.959079
0.185000 0.185097 4823.633971 69.780212 -845.339988 -20.706690 -187.078275 270556 3669.959079
0.195000 0.195085 4366.987917 61.576658 -913.238111 15.398039 -95.186271 301084 3669.959079
0.205000 0.205080 4024.236924 31.405609 -784.982432 -27.800282 -60.625764 332628 3669.959079
0.215000 0.215092 3729.621846 89.633193 -539.418738 -26.499743 151.179311 367216 3669.959079
0.225000 0.225099 3360.173860 35.427881 -755.117567 43.021984 405.999869 400444 3669.959079
0.235000 0.235081 3139.488675 39.462164 -922.226853 0.264260 217.210189 436500 3669.959079
0.245000 0.245077 2910.413654 48.038361 -716.226042 -25.480569 158.702940 475900 3669.959079
0.255000 0.255082 2780.107619 34.158743 -668.088412 21.491393 344.795428 514900 3669.959079
0.265000 0.265074 2531.263884 63.545092 -820.894822 -38.328620 295.438690 555408 3669.959079
0.275000 0.275066 2272.519592 50.354885 -641.992932 -36.130902 292.621015 598684 3669.959079
0.285000 0.285066 2198.459939 40.584858 -731.534043 18.258785 143.218305 643228 3669.959079
0.295000 0.295058 2008.635499 46.206958 -728.279582 -25.103214 245.862556 688036 3669.959079
