#Data file /home/DATA/sbrieden/Patchy_dr12_mocks/postrecon/original/Patchy-Mocks-DR12LOWZ-S-V5C-Portsmouth-mass_f0693b1850s10_0086.dat
#Random file /home/DATA/sbrieden/Patchy_dr12_mocks/postrecon/original/Patchy-Mocks-DR12LOWZ-S-V5C-Portsmouth-mass_f0693b1850s10_0086.ran
#Number of data elements used: 99567
#Number of random elements used: 2006157
#Effective number of data elements weighted by wcol: 99567.000000
#Effective number of random elements weighted by wcol: 2006157.000000
#Effective number of data elements weighted by wcol*wsys: 99567.000000
#Effective number of random elements weighted by wcol*wsys: 2006157.000000
#Effective redshift value from data 0.330757
#Effective redshift value from randoms 0.329726
#Size of the Box 2500.000000 Mpc/h
#Area of the survey used 2501.000000 deg^2
#Value of alpha: 0.049744
#Normalization using data file
#Normalization using density
#Normalization 1.848083
#Shot noise factor 1.000000
#Shot noise value 3663.472754
#Type of Computation: FFT
#Number of grid cells: 512
#Type of Mass Assigment: TSC
#Type of Yamamoto: GridCenter
#Number of Interlacing steps: 2
#Grid Correction: yes
#Value of Om=0.310000
#Quadrupole as L2
#Octopole as L3
#Hexadecapole as L2L2
#k-centerbin	 k-eff	 Monopole-Pshotnoise	 Dipole	 Quadrupole	 Octopole	 Hexadecapole	 number of modes	 Pshotnoise
0.005000 0.007385 35975.157149 -4016.503344 -91.218951 -8825.857553 -15503.634020 250 3663.472754
0.015000 0.016012 61693.116845 1269.366238 1966.488347 -10350.597367 -31728.848409 1852 3663.472754
0.025000 0.025646 52121.253489 2191.532511 23742.272520 2465.732456 1493.494009 5020 3663.472754
0.035000 0.035469 37733.610931 1485.240609 -1441.807694 3625.470542 2868.488591 9756 3663.472754
0.045000 0.045368 31232.638959 -295.532356 -4313.409808 -917.876789 -1066.724751 16108 3663.472754
0.055000 0.055314 24130.704051 1080.344790 -3396.941192 -577.633646 -690.478813 24064 3663.472754
0.065000 0.065258 20668.859302 250.472052 -844.576719 205.766429 -658.728744 33396 3663.472754
0.075000 0.075209 18932.553329 321.594008 -2521.623250 -274.162612 119.666871 44596 3663.472754
0.085000 0.085175 15642.811725 346.307237 -978.887193 164.085341 2860.109493 57124 3663.472754
0.095000 0.095157 12375.803100 322.541257 -920.243721 -99.708834 640.498041 71620 3663.472754
0.105000 0.105162 11281.834607 94.958910 -1734.983928 145.386523 214.492929 87552 3663.472754
0.115000 0.115148 10044.185334 190.209132 -1784.818674 -164.353479 -97.910466 104524 3663.472754
0.125000 0.125146 8962.769537 164.341127 -1793.524253 -46.883996 -160.117444 124228 3663.472754
0.135000 0.135146 8510.425694 -8.086420 -1417.929448 -150.579952 -489.544633 144204 3663.472754
0.145000 0.145132 7482.450265 196.227516 -1299.716661 38.002166 -156.916258 166492 3663.472754
0.155000 0.155114 6575.666840 123.869699 -767.493801 -35.252931 131.956299 189964 3663.472754
0.165000 0.165102 5651.455338 124.038024 -691.604042 -99.825988 151.331310 215640 3663.472754
0.175000 0.175105 5300.762904 10.572079 -649.563756 67.880865 191.975351 242836 3663.472754
0.185000 0.185097 4982.674469 94.160010 -702.422135 -28.330510 -12.034271 270556 3663.472754
0.195000 0.195085 4452.410765 99.186662 -1074.384419 17.495162 134.585559 301084 3663.472754
0.205000 0.205080 3953.856921 36.649089 -881.705356 -83.532348 364.250534 332628 3663.472754
0.215000 0.215092 3644.438398 72.908813 -588.497363 23.246918 262.597436 367216 3663.472754
0.225000 0.225099 3250.024685 48.691333 -719.332871 -12.601358 360.100473 400444 3663.472754
0.235000 0.235081 3057.786640 51.740492 -777.997394 -11.665571 158.748900 436500 3663.472754
0.245000 0.245077 2903.966235 40.740904 -908.778893 47.691148 428.480903 475900 3663.472754
0.255000 0.255082 2647.632870 37.920014 -893.419796 -4.656846 561.874174 514900 3663.472754
0.265000 0.265074 2401.846480 73.481333 -841.509762 -78.951591 446.121526 555408 3663.472754
0.275000 0.275066 2240.146985 17.247883 -672.994080 17.435399 342.660103 598684 3663.472754
0.285000 0.285066 2125.631119 51.493202 -665.298112 -54.987915 241.321975 643228 3663.472754
0.295000 0.295058 1947.781240 34.000776 -808.361970 42.076141 15.382528 688036 3663.472754
