#Data file /home/DATA/sbrieden/Patchy_dr12_mocks/postrecon/original/Patchy-Mocks-DR12LOWZ-S-V5C-Portsmouth-mass_f0693b1850s10_0025.dat
#Random file /home/DATA/sbrieden/Patchy_dr12_mocks/postrecon/original/Patchy-Mocks-DR12LOWZ-S-V5C-Portsmouth-mass_f0693b1850s10_0025.ran
#Number of data elements used: 100149
#Number of random elements used: 2007545
#Effective number of data elements weighted by wcol: 100149.000000
#Effective number of random elements weighted by wcol: 2007545.000000
#Effective number of data elements weighted by wcol*wsys: 100149.000000
#Effective number of random elements weighted by wcol*wsys: 2007545.000000
#Effective redshift value from data 0.329634
#Effective redshift value from randoms 0.330246
#Size of the Box 2500.000000 Mpc/h
#Area of the survey used 2501.000000 deg^2
#Value of alpha: 0.049856
#Normalization using data file
#Normalization using density
#Normalization 1.856796
#Shot noise factor 1.000000
#Shot noise value 3651.591818
#Type of Computation: FFT
#Number of grid cells: 512
#Type of Mass Assigment: TSC
#Type of Yamamoto: GridCenter
#Number of Interlacing steps: 2
#Grid Correction: yes
#Value of Om=0.310000
#Quadrupole as L2
#Octopole as L3
#Hexadecapole as L2L2
#k-centerbin	 k-eff	 Monopole-Pshotnoise	 Dipole	 Quadrupole	 Octopole	 Hexadecapole	 number of modes	 Pshotnoise
0.005000 0.007385 102422.221567 -19917.488573 -65846.344399 -36984.659147 -66913.872394 250 3651.591818
0.015000 0.016012 63138.650611 7959.481339 -16028.955583 -4435.051851 16264.570206 1852 3651.591818
0.025000 0.025646 56244.433919 -2006.211528 -14847.553887 876.022633 7669.213160 5020 3651.591818
0.035000 0.035469 42786.799284 3320.419052 -10112.702601 -1577.590235 3590.149293 9756 3651.591818
0.045000 0.045368 30797.985481 -104.534478 -13696.377618 77.331844 7230.685029 16108 3651.591818
0.055000 0.055314 25954.653173 994.790365 -6946.406759 -2599.844651 -2064.779031 24064 3651.591818
0.065000 0.065258 21774.239668 249.802540 -1298.272614 -875.947403 -6045.033447 33396 3651.591818
0.075000 0.075209 19937.324714 427.822707 2308.011515 251.105204 -4768.142595 44596 3651.591818
0.085000 0.085175 16797.431208 424.178816 -1595.376751 -26.669603 -3272.493915 57124 3651.591818
0.095000 0.095157 13445.983395 363.695108 -707.668656 -82.036643 -1679.645567 71620 3651.591818
0.105000 0.105162 10912.533367 227.390221 -1009.157966 18.702334 120.782245 87552 3651.591818
0.115000 0.115148 9375.084345 77.291052 -966.227344 68.763414 -249.517548 104524 3651.591818
0.125000 0.125146 9282.039363 41.973011 -1766.565064 132.638130 -503.766565 124228 3651.591818
0.135000 0.135146 8361.457729 197.409876 -1494.125597 -229.710974 1031.419796 144204 3651.591818
0.145000 0.145132 7453.949683 49.544597 -1137.828444 15.186464 -47.855217 166492 3651.591818
0.155000 0.155114 6704.433939 203.587122 -669.130019 -64.437282 270.997730 189964 3651.591818
0.165000 0.165102 5597.661075 90.443468 -459.322110 -17.759513 245.840626 215640 3651.591818
0.175000 0.175105 5330.921381 57.990543 -550.048795 53.467731 -33.559357 242836 3651.591818
0.185000 0.185097 4774.668254 72.743820 -1029.321417 -6.460228 196.450589 270556 3651.591818
0.195000 0.195085 4250.311267 78.791930 -784.978349 -81.898508 142.952739 301084 3651.591818
0.205000 0.205080 3974.289388 33.372793 -1051.877339 29.555827 -173.408601 332628 3651.591818
0.215000 0.215092 3703.402994 72.512300 -715.690946 -122.979631 87.452015 367216 3651.591818
0.225000 0.225099 3259.394760 64.506337 -595.687939 79.719120 -90.237280 400444 3651.591818
0.235000 0.235081 2920.304276 42.379731 -722.824835 -3.802172 221.212562 436500 3651.591818
0.245000 0.245077 2790.889394 49.840693 -756.772185 -10.929230 184.564603 475900 3651.591818
0.255000 0.255082 2562.617625 42.712988 -899.091477 -31.184996 273.083601 514900 3651.591818
0.265000 0.265074 2396.423032 45.284792 -536.028812 -17.433554 59.317712 555408 3651.591818
0.275000 0.275066 2163.916219 33.288132 -851.626959 46.230883 157.344009 598684 3651.591818
0.285000 0.285066 2125.217658 37.580753 -826.553964 -51.477422 -48.577884 643228 3651.591818
0.295000 0.295058 1970.710310 44.767269 -826.780639 16.674280 -117.000352 688036 3651.591818
