#Data file /home/DATA/sbrieden/Patchy_dr12_mocks/postrecon/original/Patchy-Mocks-DR12LOWZ-S-V5C-Portsmouth-mass_f0693b1850s10_0069.dat
#Random file /home/DATA/sbrieden/Patchy_dr12_mocks/postrecon/original/Patchy-Mocks-DR12LOWZ-S-V5C-Portsmouth-mass_f0693b1850s10_0069.ran
#Number of data elements used: 100322
#Number of random elements used: 2006195
#Effective number of data elements weighted by wcol: 100322.000000
#Effective number of random elements weighted by wcol: 2006195.000000
#Effective number of data elements weighted by wcol*wsys: 100322.000000
#Effective number of random elements weighted by wcol*wsys: 2006195.000000
#Effective redshift value from data 0.330349
#Effective redshift value from randoms 0.329987
#Size of the Box 2500.000000 Mpc/h
#Area of the survey used 2501.000000 deg^2
#Value of alpha: 0.050047
#Normalization using data file
#Normalization using density
#Normalization 1.860647
#Shot noise factor 1.000000
#Shot noise value 3655.912397
#Type of Computation: FFT
#Number of grid cells: 512
#Type of Mass Assigment: TSC
#Type of Yamamoto: GridCenter
#Number of Interlacing steps: 2
#Grid Correction: yes
#Value of Om=0.310000
#Quadrupole as L2
#Octopole as L3
#Hexadecapole as L2L2
#k-centerbin	 k-eff	 Monopole-Pshotnoise	 Dipole	 Quadrupole	 Octopole	 Hexadecapole	 number of modes	 Pshotnoise
0.005000 0.007385 59639.306922 -8427.894317 -24704.451199 1665.768596 -9475.698185 250 3655.912397
0.015000 0.016012 47740.505709 1477.441875 -9114.134963 5398.350561 43600.187635 1852 3655.912397
0.025000 0.025646 40486.420614 -794.565927 -14585.823378 -3056.093157 -10431.015652 5020 3655.912397
0.035000 0.035469 38263.650985 813.848355 -7832.965563 -646.389283 8931.496141 9756 3655.912397
0.045000 0.045368 30200.520263 1394.229360 -1328.582690 -2439.932880 -7069.673765 16108 3655.912397
0.055000 0.055314 23834.597072 -65.825961 -2909.005815 1381.016836 -1288.827896 24064 3655.912397
0.065000 0.065258 23114.082170 363.619756 -1255.312739 -937.090768 525.973992 33396 3655.912397
0.075000 0.075209 20156.860030 481.851518 2072.581090 478.353302 1754.553547 44596 3655.912397
0.085000 0.085175 16522.627613 309.913372 -74.599499 453.067993 2583.132568 57124 3655.912397
0.095000 0.095157 13102.944101 370.542591 -2258.842777 -410.720261 -101.595251 71620 3655.912397
0.105000 0.105162 11243.405669 232.055705 -1468.515967 17.666996 -1201.643260 87552 3655.912397
0.115000 0.115148 10199.140990 112.539725 -1429.932459 -228.622768 674.566589 104524 3655.912397
0.125000 0.125146 9503.420563 58.530030 -936.695379 340.571747 506.562123 124228 3655.912397
0.135000 0.135146 8461.041557 197.429279 -1463.280986 -203.789525 1260.199093 144204 3655.912397
0.145000 0.145132 7258.249438 192.949846 -609.819873 -132.009909 30.198537 166492 3655.912397
0.155000 0.155114 6328.929015 51.024347 -494.998494 -22.346145 -6.540357 189964 3655.912397
0.165000 0.165102 5756.810195 133.307107 -1261.170327 74.038054 -201.586931 215640 3655.912397
0.175000 0.175105 5153.868304 57.002159 -480.916533 -188.547476 107.524073 242836 3655.912397
0.185000 0.185097 4898.249656 64.418318 -456.288818 41.013656 -189.809222 270556 3655.912397
0.195000 0.195085 4546.605689 9.879334 -1043.403870 201.630091 150.482123 301084 3655.912397
0.205000 0.205080 4071.119680 100.933718 -1211.011984 -98.713661 584.918706 332628 3655.912397
0.215000 0.215092 3874.899780 47.987444 -1148.201850 -61.678681 119.746742 367216 3655.912397
0.225000 0.225099 3439.797825 73.185537 -818.398811 -87.770480 -280.404783 400444 3655.912397
0.235000 0.235081 3143.489490 37.283201 -675.697547 78.586457 411.987172 436500 3655.912397
0.245000 0.245077 2909.941503 79.019416 -418.924120 -51.890731 203.536117 475900 3655.912397
0.255000 0.255082 2772.933686 -3.498062 -871.280433 74.973607 189.727897 514900 3655.912397
0.265000 0.265074 2583.369045 68.324783 -893.860085 -47.865501 381.651203 555408 3655.912397
0.275000 0.275066 2227.660429 65.585053 -816.359346 0.645902 62.916939 598684 3655.912397
0.285000 0.285066 2126.089444 28.749414 -931.365194 -8.210375 373.632177 643228 3655.912397
0.295000 0.295058 2050.355293 21.609226 -751.198506 -27.874218 370.022721 688036 3655.912397
