#Data file /home/DATA/sbrieden/Patchy_dr12_mocks/postrecon/original/Patchy-Mocks-DR12LOWZ-S-V5C-Portsmouth-mass_f0693b1850s10_0079.dat
#Random file /home/DATA/sbrieden/Patchy_dr12_mocks/postrecon/original/Patchy-Mocks-DR12LOWZ-S-V5C-Portsmouth-mass_f0693b1850s10_0079.ran
#Number of data elements used: 101119
#Number of random elements used: 2003371
#Effective number of data elements weighted by wcol: 101119.000000
#Effective number of random elements weighted by wcol: 2003371.000000
#Effective number of data elements weighted by wcol*wsys: 101119.000000
#Effective number of random elements weighted by wcol*wsys: 2003371.000000
#Effective redshift value from data 0.329813
#Effective redshift value from randoms 0.330041
#Size of the Box 2500.000000 Mpc/h
#Area of the survey used 2501.000000 deg^2
#Value of alpha: 0.050500
#Normalization using data file
#Normalization using density
#Normalization 1.875372
#Shot noise factor 1.000000
#Shot noise value 3656.996658
#Type of Computation: FFT
#Number of grid cells: 512
#Type of Mass Assigment: TSC
#Type of Yamamoto: GridCenter
#Number of Interlacing steps: 2
#Grid Correction: yes
#Value of Om=0.310000
#Quadrupole as L2
#Octopole as L3
#Hexadecapole as L2L2
#k-centerbin	 k-eff	 Monopole-Pshotnoise	 Dipole	 Quadrupole	 Octopole	 Hexadecapole	 number of modes	 Pshotnoise
0.005000 0.007385 24078.657638 -3425.253666 430.403651 -22497.165145 -33368.527619 250 3656.996658
0.015000 0.016012 54661.937906 -5229.059128 -21773.248172 3619.695828 -16002.408510 1852 3656.996658
0.025000 0.025646 50087.430414 2956.313978 -5365.054307 -5038.799276 4448.432419 5020 3656.996658
0.035000 0.035469 38423.349046 -223.865648 4399.545277 393.587895 2082.431632 9756 3656.996658
0.045000 0.045368 33045.526901 1303.994738 2011.465135 1098.713131 -5144.011401 16108 3656.996658
0.055000 0.055314 26313.747808 667.731808 -737.976500 174.548229 2514.423780 24064 3656.996658
0.065000 0.065258 21821.343980 428.835937 -1404.062156 -1.901303 -2119.813862 33396 3656.996658
0.075000 0.075209 18797.480657 284.038521 -1068.626464 112.707913 72.797608 44596 3656.996658
0.085000 0.085175 16175.539872 516.114601 -1892.440455 -17.162289 2308.942884 57124 3656.996658
0.095000 0.095157 13126.052701 196.134145 -507.493482 131.300475 1792.750646 71620 3656.996658
0.105000 0.105162 11392.993595 137.731129 -1483.129180 -135.494418 -48.380063 87552 3656.996658
0.115000 0.115148 9812.618048 276.523501 -653.715701 -285.109488 364.332045 104524 3656.996658
0.125000 0.125146 9185.243487 7.955601 -1069.527628 194.421023 210.117677 124228 3656.996658
0.135000 0.135146 8458.596424 144.019444 -538.851138 -30.881509 83.076508 144204 3656.996658
0.145000 0.145132 7705.589892 118.658038 -866.367919 -18.779662 430.257240 166492 3656.996658
0.155000 0.155114 6874.802888 136.032899 -1139.449914 -16.865293 402.938448 189964 3656.996658
0.165000 0.165102 6089.304078 86.051646 -684.829084 -38.710703 688.201515 215640 3656.996658
0.175000 0.175105 5690.177339 101.760973 -447.609374 -80.937994 19.433784 242836 3656.996658
0.185000 0.185097 4871.649166 79.955130 -633.712176 136.881109 -50.735359 270556 3656.996658
0.195000 0.195085 4497.662005 49.557857 -839.279224 -146.879072 46.526938 301084 3656.996658
0.205000 0.205080 4145.286099 48.951854 -703.381829 23.270117 -93.276331 332628 3656.996658
0.215000 0.215092 3876.338175 77.639159 -918.707159 37.724705 102.697795 367216 3656.996658
0.225000 0.225099 3307.728959 78.240524 -746.093654 -38.089999 384.445846 400444 3656.996658
0.235000 0.235081 3059.890077 37.110685 -835.398314 70.102304 187.852720 436500 3656.996658
0.245000 0.245077 2825.089132 59.564114 -914.394843 -83.513790 323.506584 475900 3656.996658
0.255000 0.255082 2660.538726 44.548521 -529.930952 -1.853956 340.861199 514900 3656.996658
0.265000 0.265074 2567.545625 27.548099 -922.060767 36.176288 231.827976 555408 3656.996658
0.275000 0.275066 2257.095679 64.706522 -783.063527 -61.950359 130.367320 598684 3656.996658
0.285000 0.285066 2036.972935 43.630989 -806.988396 29.738692 238.673698 643228 3656.996658
0.295000 0.295058 1941.156039 22.816893 -881.693394 3.086175 490.208047 688036 3656.996658
