#Data file /home/DATA/sbrieden/Patchy_dr12_mocks/postrecon/original/Patchy-Mocks-DR12CMASS-N-V6C-Portsmouth-mass_f0784b1850s10_0046.dat
#Random file /home/DATA/sbrieden/Patchy_dr12_mocks/postrecon/original/Patchy-Mocks-DR12CMASS-N-V6C-Portsmouth-mass_f0784b1850s10_0046.ran
#Number of data elements used: 588804
#Number of random elements used: 11765684
#Effective number of data elements weighted by wcol: 588804.000000
#Effective number of random elements weighted by wcol: 11765684.000000
#Effective number of data elements weighted by wcol*wsys: 588804.000000
#Effective number of random elements weighted by wcol*wsys: 11765684.000000
#Effective redshift value from data 0.597763
#Effective redshift value from randoms 0.597926
#Size of the Box 3700.000000 Mpc/h
#Area of the survey used 6851.000000 deg^2
#Value of alpha: 0.050037
#Normalization using data file
#Normalization using density
#Normalization 11.056949
#Shot noise factor 1.000000
#Shot noise value 4959.585997
#Type of Computation: FFT
#Number of grid cells: 512
#Type of Mass Assigment: TSC
#Type of Yamamoto: GridCenter
#Number of Interlacing steps: 2
#Grid Correction: yes
#Value of Om=0.310000
#Quadrupole as L2
#Octopole as L3
#Hexadecapole as L2L2
#k-centerbin	 k-eff	 Monopole-Pshotnoise	 Dipole	 Quadrupole	 Octopole	 Hexadecapole	 number of modes	 Pshotnoise
0.005000 0.007485 44864.209459 -1117.418619 -8586.366180 2031.791271 10538.427620 846 4959.585997
0.015000 0.016072 45604.530055 367.836444 2068.024022 -1531.039749 -8389.118522 6012 4959.585997
0.025000 0.025646 43268.729737 -154.156210 -10961.001547 851.791208 7064.452993 16172 4959.585997
0.035000 0.035469 35254.544173 759.236233 -712.830808 72.787237 6582.188635 31764 4959.585997
0.045000 0.045378 28941.194791 514.787485 -2988.607814 -601.091207 501.472488 52164 4959.585997
0.055000 0.055280 22582.744708 110.562499 -3334.781676 162.402108 -1471.412499 77396 4959.585997
0.065000 0.065232 20783.893406 249.228052 -1561.269689 -214.058193 -1150.062724 108936 4959.585997
0.075000 0.075229 17929.741574 213.570963 -3176.349598 58.872951 -485.047323 144980 4959.585997
0.085000 0.085193 14957.744098 228.444165 -2632.685582 -153.864754 210.943983 184854 4959.585997
0.095000 0.095166 12472.425449 222.759597 -1568.166728 -234.027303 -137.916413 232260 4959.585997
0.105000 0.105155 10232.953170 113.434552 -965.693989 19.721162 -335.446905 282884 4959.585997
0.115000 0.115131 9362.642155 94.264092 -968.800239 -25.981014 75.926554 339084 4959.585997
0.125000 0.125124 8768.284337 79.636443 -836.840997 24.010282 982.278775 401864 4959.585997
0.135000 0.135125 7948.175980 68.554885 -729.714471 32.978804 354.013688 468084 4959.585997
0.145000 0.145120 7076.566985 108.084039 -1014.108378 -15.610933 466.900638 539940 4959.585997
0.155000 0.155118 6100.965315 69.999356 -815.161448 -35.542230 237.364339 617324 4959.585997
0.165000 0.165105 5591.933048 64.026957 -780.485615 11.246623 103.516556 697452 4959.585997
0.175000 0.175088 5180.569926 69.878056 -788.366955 -40.136149 226.783053 785846 4959.585997
0.185000 0.185089 4728.172064 42.937760 -651.555601 17.912796 316.407267 879528 4959.585997
0.195000 0.195093 4451.930230 67.008507 -640.645762 -14.941552 167.461462 976596 4959.585997
0.205000 0.205084 3975.335125 62.462272 -511.685255 -42.361762 269.958529 1077212 4959.585997
0.215000 0.215076 3639.859241 57.380287 -655.089468 14.041407 -41.617885 1186908 4959.585997
0.225000 0.225076 3342.680961 44.103806 -729.944807 17.224127 119.624117 1299452 4959.585997
0.235000 0.235073 3061.549358 55.326481 -645.571094 -27.811125 179.448117 1417356 4959.585997
0.245000 0.245067 2914.763528 42.904172 -773.632050 2.156463 12.573367 1539600 4959.585997
0.255000 0.255064 2643.178173 53.292896 -729.499823 -4.575655 128.615383 1669820 4959.585997
0.265000 0.265061 2485.495227 44.390443 -795.579814 -4.842219 272.925362 1801086 4959.585997
0.275000 0.275060 2353.118890 48.000965 -775.810990 1.042124 273.453333 1942244 4959.585997
0.285000 0.285062 2152.504119 50.230900 -811.761079 -13.944516 142.372777 2084796 4959.585997
0.295000 0.295057 2005.486849 46.134849 -814.404483 -2.910144 194.809177 2231868 4959.585997
