#Data file /home/DATA/sbrieden/Patchy_dr12_mocks/postrecon/original/Patchy-Mocks-DR12CMASS-N-V6C-Portsmouth-mass_f0784b1850s10_0060.dat
#Random file /home/DATA/sbrieden/Patchy_dr12_mocks/postrecon/original/Patchy-Mocks-DR12CMASS-N-V6C-Portsmouth-mass_f0784b1850s10_0060.ran
#Number of data elements used: 580984
#Number of random elements used: 11773983
#Effective number of data elements weighted by wcol: 580984.000000
#Effective number of random elements weighted by wcol: 11773983.000000
#Effective number of data elements weighted by wcol*wsys: 580984.000000
#Effective number of random elements weighted by wcol*wsys: 11773983.000000
#Effective redshift value from data 0.597987
#Effective redshift value from randoms 0.597635
#Size of the Box 3700.000000 Mpc/h
#Area of the survey used 6851.000000 deg^2
#Value of alpha: 0.049581
#Normalization using data file
#Normalization using density
#Normalization 10.937920
#Shot noise factor 1.000000
#Shot noise value 5001.492161
#Type of Computation: FFT
#Number of grid cells: 512
#Type of Mass Assigment: TSC
#Type of Yamamoto: GridCenter
#Number of Interlacing steps: 2
#Grid Correction: yes
#Value of Om=0.310000
#Quadrupole as L2
#Octopole as L3
#Hexadecapole as L2L2
#k-centerbin	 k-eff	 Monopole-Pshotnoise	 Dipole	 Quadrupole	 Octopole	 Hexadecapole	 number of modes	 Pshotnoise
0.005000 0.007485 51841.939141 -4769.151697 -20813.412603 -8483.456025 -17477.596056 846 5001.492161
0.015000 0.016072 53788.012355 816.167734 -4228.246797 -1824.880092 -7806.154852 6012 5001.492161
0.025000 0.025646 40919.113302 731.872980 -1331.821009 261.042603 6235.539470 16172 5001.492161
0.035000 0.035469 32949.562656 468.426699 -5087.322749 -930.368164 -2175.261521 31764 5001.492161
0.045000 0.045378 27633.667526 296.090611 -4192.999409 595.060805 -257.452260 52164 5001.492161
0.055000 0.055280 22977.774290 268.187454 -2211.196621 -292.514532 1633.589194 77396 5001.492161
0.065000 0.065232 20476.563998 200.982087 -654.344452 -213.523523 1757.846969 108936 5001.492161
0.075000 0.075229 18269.128208 214.779121 -2218.962791 61.953048 366.924068 144980 5001.492161
0.085000 0.085193 14632.667362 226.888687 -1843.552770 -27.465581 207.717659 184854 5001.492161
0.095000 0.095166 12111.008398 206.922979 -936.239001 -123.382840 255.948751 232260 5001.492161
0.105000 0.105155 10551.853949 100.779040 -966.125322 65.209899 84.793108 282884 5001.492161
0.115000 0.115131 9492.345214 96.144122 -1144.388384 -93.753105 -200.799148 339084 5001.492161
0.125000 0.125124 8805.878157 90.135068 -495.949717 13.565723 279.966792 401864 5001.492161
0.135000 0.135125 8002.595773 62.377860 -691.997773 4.950177 296.353734 468084 5001.492161
0.145000 0.145120 7160.872699 124.226841 -888.855004 -79.538096 -352.938332 539940 5001.492161
0.155000 0.155118 6075.352654 73.919378 -705.095225 80.658252 -336.732809 617324 5001.492161
0.165000 0.165105 5488.967225 64.771274 -939.226873 -23.054759 128.974574 697452 5001.492161
0.175000 0.175088 5048.543435 57.454145 -660.175983 -50.264312 -70.802974 785846 5001.492161
0.185000 0.185089 4625.304702 55.624314 -453.719955 -13.026229 -107.191543 879528 5001.492161
0.195000 0.195093 4439.557588 52.503396 -527.665130 23.559052 127.951918 976596 5001.492161
0.205000 0.205084 4002.854510 63.762562 -722.347866 0.751478 81.764873 1077212 5001.492161
0.215000 0.215076 3591.613060 62.197327 -517.287418 -27.321892 170.339750 1186908 5001.492161
0.225000 0.225076 3312.880926 51.996802 -680.595232 8.568123 250.533234 1299452 5001.492161
0.235000 0.235073 3068.282059 43.188004 -645.315684 -16.787769 208.966746 1417356 5001.492161
0.245000 0.245067 2851.835074 48.908775 -561.591536 10.266001 107.031792 1539600 5001.492161
0.255000 0.255064 2697.268325 48.857391 -648.800175 -16.988149 156.273759 1669820 5001.492161
0.265000 0.265061 2507.712258 42.125192 -587.206146 10.991183 172.669341 1801086 5001.492161
0.275000 0.275060 2296.201872 55.318078 -699.674196 -5.680578 120.387194 1942244 5001.492161
0.285000 0.285062 2137.584435 43.751726 -684.123052 -3.657093 291.624860 2084796 5001.492161
0.295000 0.295057 2035.339091 48.059652 -693.734131 -8.945177 270.920846 2231868 5001.492161
