#Data file /home/DATA/sbrieden/Patchy_dr12_mocks/postrecon/original/Patchy-Mocks-DR12CMASS-N-V6C-Portsmouth-mass_f0784b1850s10_0088.dat
#Random file /home/DATA/sbrieden/Patchy_dr12_mocks/postrecon/original/Patchy-Mocks-DR12CMASS-N-V6C-Portsmouth-mass_f0784b1850s10_0088.ran
#Number of data elements used: 588828
#Number of random elements used: 11773762
#Effective number of data elements weighted by wcol: 588828.000000
#Effective number of random elements weighted by wcol: 11773762.000000
#Effective number of data elements weighted by wcol*wsys: 588828.000000
#Effective number of random elements weighted by wcol*wsys: 11773762.000000
#Effective redshift value from data 0.597733
#Effective redshift value from randoms 0.597839
#Size of the Box 3700.000000 Mpc/h
#Area of the survey used 6851.000000 deg^2
#Value of alpha: 0.050017
#Normalization using data file
#Normalization using density
#Normalization 11.062095
#Shot noise factor 1.000000
#Shot noise value 4952.892025
#Type of Computation: FFT
#Number of grid cells: 512
#Type of Mass Assigment: TSC
#Type of Yamamoto: GridCenter
#Number of Interlacing steps: 2
#Grid Correction: yes
#Value of Om=0.310000
#Quadrupole as L2
#Octopole as L3
#Hexadecapole as L2L2
#k-centerbin	 k-eff	 Monopole-Pshotnoise	 Dipole	 Quadrupole	 Octopole	 Hexadecapole	 number of modes	 Pshotnoise
0.005000 0.007485 38213.358670 -5052.422655 -15091.337632 -1546.618035 -1956.317524 846 4952.892025
0.015000 0.016072 50986.786507 1085.937208 -18591.297955 -7558.260211 -10598.106340 6012 4952.892025
0.025000 0.025646 40286.328412 536.734618 -2010.909458 -1041.212993 -13817.504333 16172 4952.892025
0.035000 0.035469 32370.652363 357.629236 -4373.361518 203.026920 526.626069 31764 4952.892025
0.045000 0.045378 28567.809875 349.191323 -5483.063476 -219.364331 3555.738048 52164 4952.892025
0.055000 0.055280 23464.848989 384.594304 -1533.871986 -362.412921 -395.242915 77396 4952.892025
0.065000 0.065232 20853.645965 -11.135343 -2355.195414 471.153247 2284.856970 108936 4952.892025
0.075000 0.075229 17747.194774 306.232403 -1945.969752 -101.429123 399.227991 144980 4952.892025
0.085000 0.085193 14923.450073 239.179490 -2709.642761 -61.735201 1137.224797 184854 4952.892025
0.095000 0.095166 12453.483695 205.372736 -1466.246360 -197.916105 423.859478 232260 4952.892025
0.105000 0.105155 10665.217053 89.723871 -1156.818213 16.836528 304.463556 282884 4952.892025
0.115000 0.115131 9494.265886 68.415661 -1009.307309 -0.191590 318.407093 339084 4952.892025
0.125000 0.125124 9027.529052 106.412443 -1296.747071 -12.049810 550.625702 401864 4952.892025
0.135000 0.135125 7925.154719 101.680735 -1002.348714 -99.549960 -139.072647 468084 4952.892025
0.145000 0.145120 7003.836985 89.275629 -517.845851 -17.177845 -149.766449 539940 4952.892025
0.155000 0.155118 6235.014624 81.795328 -782.350668 20.168879 57.841296 617324 4952.892025
0.165000 0.165105 5578.515548 63.097172 -670.056735 -15.711802 -227.275503 697452 4952.892025
0.175000 0.175088 5091.571930 68.303639 -499.170673 -29.993266 0.229908 785846 4952.892025
0.185000 0.185089 4773.122126 42.296413 -535.094390 41.362984 314.063981 879528 4952.892025
0.195000 0.195093 4446.687718 62.811846 -585.632381 -25.003286 337.362670 976596 4952.892025
0.205000 0.205084 4018.889925 63.298314 -732.141978 -11.716529 316.583112 1077212 4952.892025
0.215000 0.215076 3678.492925 53.326274 -597.883092 14.396331 32.201415 1186908 4952.892025
0.225000 0.225076 3277.852593 60.818427 -587.242819 -19.863103 247.955804 1299452 4952.892025
0.235000 0.235073 3067.875786 42.999963 -658.808945 9.904040 166.945621 1417356 4952.892025
0.245000 0.245067 2857.129622 44.433763 -656.744200 -17.962510 279.748611 1539600 4952.892025
0.255000 0.255064 2707.952267 53.470203 -788.276358 6.989116 161.936540 1669820 4952.892025
0.265000 0.265061 2456.213305 48.821838 -811.375909 -17.857477 249.425820 1801086 4952.892025
0.275000 0.275060 2295.618068 47.848945 -775.087722 -5.883463 222.694828 1942244 4952.892025
0.285000 0.285062 2079.138808 39.842018 -609.442648 1.386527 331.578064 2084796 4952.892025
0.295000 0.295057 1996.369613 54.970956 -690.919934 -14.168158 169.260270 2231868 4952.892025
