#Data file /home/DATA/sbrieden/Patchy_dr12_mocks/postrecon/original/Patchy-Mocks-DR12LOWZ-N-V5C-Portsmouth-mass_f0693b1850s10_0025.dat
#Random file /home/DATA/sbrieden/Patchy_dr12_mocks/postrecon/original/Patchy-Mocks-DR12LOWZ-N-V5C-Portsmouth-mass_f0693b1850s10_0025.ran
#Number of data elements used: 235855
#Number of random elements used: 4685075
#Effective number of data elements weighted by wcol: 235855.000000
#Effective number of random elements weighted by wcol: 4685075.000000
#Effective number of data elements weighted by wcol*wsys: 235855.000000
#Effective number of random elements weighted by wcol*wsys: 4685075.000000
#Effective redshift value from data 0.329833
#Effective redshift value from randoms 0.330039
#Size of the Box 2500.000000 Mpc/h
#Area of the survey used 5826.000000 deg^2
#Value of alpha: 0.050310
#Normalization using data file
#Normalization using density
#Normalization 4.368372
#Shot noise factor 1.000000
#Shot noise value 3651.532900
#Type of Computation: FFT
#Number of grid cells: 512
#Type of Mass Assigment: TSC
#Type of Yamamoto: GridCenter
#Number of Interlacing steps: 2
#Grid Correction: yes
#Value of Om=0.310000
#Quadrupole as L2
#Octopole as L3
#Hexadecapole as L2L2
#k-centerbin	 k-eff	 Monopole-Pshotnoise	 Dipole	 Quadrupole	 Octopole	 Hexadecapole	 number of modes	 Pshotnoise
0.005000 0.007385 53700.179634 -10254.233214 -72.137605 16909.970201 7411.134090 250 3651.532900
0.015000 0.016012 69759.093392 736.166235 -6072.659757 -2114.525205 -4163.476698 1852 3651.532900
0.025000 0.025646 53469.391820 1881.655003 -5038.217897 892.521671 17929.036044 5020 3651.532900
0.035000 0.035469 39102.933733 975.434002 -6746.840286 -795.417461 -1914.998317 9756 3651.532900
0.045000 0.045368 29459.065233 1162.956688 -4454.777631 -1023.269317 6745.703741 16108 3651.532900
0.055000 0.055314 26308.584407 369.447418 -2407.565702 675.439563 598.049669 24064 3651.532900
0.065000 0.065258 22152.170857 53.499883 -2241.662018 -101.313740 3564.033873 33396 3651.532900
0.075000 0.075209 20159.658069 574.743617 -1265.568700 -533.302807 -56.121543 44596 3651.532900
0.085000 0.085175 16525.417749 418.485575 -2363.314463 103.566699 -479.976288 57124 3651.532900
0.095000 0.095157 13420.636349 270.978728 -1609.025183 55.935828 1824.728545 71620 3651.532900
0.105000 0.105162 11606.626406 214.934850 -971.615971 -289.605820 490.568653 87552 3651.532900
0.115000 0.115148 10268.531214 179.014077 -108.383250 -126.569839 -168.427573 104524 3651.532900
0.125000 0.125146 9421.865307 150.860770 -93.935899 139.899891 967.795865 124228 3651.532900
0.135000 0.135146 8528.923617 98.690306 -264.383625 -20.210257 115.567441 144204 3651.532900
0.145000 0.145132 7695.891871 80.419829 -395.663936 97.754684 260.448744 166492 3651.532900
0.155000 0.155114 6558.017547 205.060316 -809.789353 -124.479485 276.545438 189964 3651.532900
0.165000 0.165102 5605.743321 92.559002 -565.721732 42.200077 301.571531 215640 3651.532900
0.175000 0.175105 5277.172909 30.929591 -666.356103 115.815434 840.588596 242836 3651.532900
0.185000 0.185097 4795.891884 85.614840 -751.908088 -83.813515 395.636875 270556 3651.532900
0.195000 0.195085 4480.398315 66.809461 -742.351263 -44.195198 242.435058 301084 3651.532900
0.205000 0.205080 4059.520010 55.554746 -477.632410 -1.144386 234.002019 332628 3651.532900
0.215000 0.215092 3720.423475 74.758857 -439.122794 -6.682353 91.734338 367216 3651.532900
0.225000 0.225099 3263.063076 63.548778 -772.292802 9.401894 245.505554 400444 3651.532900
0.235000 0.235081 2995.635518 43.348836 -702.985606 6.473082 340.926343 436500 3651.532900
0.245000 0.245077 2809.676351 38.086905 -896.089613 -23.931357 114.221686 475900 3651.532900
0.255000 0.255082 2697.410913 50.732140 -793.462221 -18.128196 127.152044 514900 3651.532900
0.265000 0.265074 2545.171914 36.446158 -639.482654 5.355947 370.806891 555408 3651.532900
0.275000 0.275066 2312.833391 39.385014 -779.770673 25.908074 228.557961 598684 3651.532900
0.285000 0.285066 2164.623308 47.793077 -866.418536 -41.759852 216.410252 643228 3651.532900
0.295000 0.295058 2042.707901 35.140714 -820.762670 -21.933429 238.162254 688036 3651.532900
