#Data file /home/DATA/sbrieden/Patchy_dr12_mocks/postrecon/original/Patchy-Mocks-DR12CMASS-N-V6C-Portsmouth-mass_f0784b1850s10_0015.dat
#Random file /home/DATA/sbrieden/Patchy_dr12_mocks/postrecon/original/Patchy-Mocks-DR12CMASS-N-V6C-Portsmouth-mass_f0784b1850s10_0015.ran
#Number of data elements used: 582586
#Number of random elements used: 11770296
#Effective number of data elements weighted by wcol: 582586.000000
#Effective number of random elements weighted by wcol: 11770296.000000
#Effective number of data elements weighted by wcol*wsys: 582586.000000
#Effective number of random elements weighted by wcol*wsys: 11770296.000000
#Effective redshift value from data 0.598015
#Effective redshift value from randoms 0.597610
#Size of the Box 3700.000000 Mpc/h
#Area of the survey used 6851.000000 deg^2
#Value of alpha: 0.049610
#Normalization using data file
#Normalization using density
#Normalization 10.948585
#Shot noise factor 1.000000
#Shot noise value 4977.156339
#Type of Computation: FFT
#Number of grid cells: 512
#Type of Mass Assigment: TSC
#Type of Yamamoto: GridCenter
#Number of Interlacing steps: 2
#Grid Correction: yes
#Value of Om=0.310000
#Quadrupole as L2
#Octopole as L3
#Hexadecapole as L2L2
#k-centerbin	 k-eff	 Monopole-Pshotnoise	 Dipole	 Quadrupole	 Octopole	 Hexadecapole	 number of modes	 Pshotnoise
0.005000 0.007485 27963.956097 -4720.478876 -6884.147858 3127.974361 6428.003248 846 4977.156339
0.015000 0.016072 48057.551611 -476.691586 -1018.546480 43.572431 -1178.246343 6012 4977.156339
0.025000 0.025646 44749.786055 312.218673 -7056.971662 -271.993634 5077.517679 16172 4977.156339
0.035000 0.035469 33695.238612 813.682630 -4084.991041 -426.882340 -1852.553853 31764 4977.156339
0.045000 0.045378 26427.970603 378.461815 -1501.665325 -106.006476 357.564703 52164 4977.156339
0.055000 0.055280 22589.115622 193.727883 -3151.694818 -47.890781 1878.424767 77396 4977.156339
0.065000 0.065232 20945.497235 195.967180 -3051.965379 -87.869805 -355.317856 108936 4977.156339
0.075000 0.075229 17250.964739 189.738203 -1966.051361 -6.203346 1385.325922 144980 4977.156339
0.085000 0.085193 14827.633110 318.034096 -1893.968378 -249.389954 -736.387193 184854 4977.156339
0.095000 0.095166 11915.762831 125.593871 -1518.394399 100.933977 365.701460 232260 4977.156339
0.105000 0.105155 10187.162870 168.706390 -1161.793425 -131.411831 468.776471 282884 4977.156339
0.115000 0.115131 9367.804436 51.191057 -722.951495 3.287242 154.416280 339084 4977.156339
0.125000 0.125124 8730.781384 71.873356 -1007.063809 17.741580 263.136212 401864 4977.156339
0.135000 0.135125 7854.287609 90.807523 -906.552349 10.573005 418.233744 468084 4977.156339
0.145000 0.145120 7081.187894 72.682483 -1069.090164 -33.079115 461.821232 539940 4977.156339
0.155000 0.155118 6333.709567 107.394959 -863.055800 -1.372398 422.417946 617324 4977.156339
0.165000 0.165105 5467.633643 75.281847 -607.339253 -63.989286 178.058918 697452 4977.156339
0.175000 0.175088 5083.498681 49.589677 -536.533494 9.551739 331.374202 785846 4977.156339
0.185000 0.185089 4730.073585 57.446354 -483.981016 -18.914181 -60.409838 879528 4977.156339
0.195000 0.195093 4388.468879 60.965517 -509.429769 -5.180613 159.400616 976596 4977.156339
0.205000 0.205084 4043.085628 48.482016 -662.826789 44.406233 283.303266 1077212 4977.156339
0.215000 0.215076 3628.278625 71.352897 -789.508863 -67.805448 192.356153 1186908 4977.156339
0.225000 0.225076 3254.640724 34.637535 -563.811950 37.021473 -114.345225 1299452 4977.156339
0.235000 0.235073 3053.781238 49.129359 -653.557528 17.828916 182.058628 1417356 4977.156339
0.245000 0.245067 2890.311922 56.012889 -830.020874 -24.164998 168.520764 1539600 4977.156339
0.255000 0.255064 2643.553985 46.474530 -717.266604 -12.611762 264.215899 1669820 4977.156339
0.265000 0.265061 2410.726011 51.208711 -759.536764 -8.885234 250.495650 1801086 4977.156339
0.275000 0.275060 2310.703683 43.611696 -727.968121 6.245939 118.560004 1942244 4977.156339
0.285000 0.285062 2170.445273 42.957721 -813.474756 -10.889073 173.591470 2084796 4977.156339
0.295000 0.295057 1993.822034 49.173803 -803.374063 -6.935306 167.019461 2231868 4977.156339
