#Data file /home/DATA/sbrieden/Patchy_dr12_mocks/postrecon/original/Patchy-Mocks-DR12LOWZ-N-V5C-Portsmouth-mass_f0693b1850s10_0095.dat
#Random file /home/DATA/sbrieden/Patchy_dr12_mocks/postrecon/original/Patchy-Mocks-DR12LOWZ-N-V5C-Portsmouth-mass_f0693b1850s10_0095.ran
#Number of data elements used: 234382
#Number of random elements used: 4678333
#Effective number of data elements weighted by wcol: 234382.000000
#Effective number of random elements weighted by wcol: 4678333.000000
#Effective number of data elements weighted by wcol*wsys: 234382.000000
#Effective number of random elements weighted by wcol*wsys: 4678333.000000
#Effective redshift value from data 0.330487
#Effective redshift value from randoms 0.329755
#Size of the Box 2500.000000 Mpc/h
#Area of the survey used 5826.000000 deg^2
#Value of alpha: 0.050214
#Normalization using data file
#Normalization using density
#Normalization 4.350066
#Shot noise factor 1.000000
#Shot noise value 3666.033441
#Type of Computation: FFT
#Number of grid cells: 512
#Type of Mass Assigment: TSC
#Type of Yamamoto: GridCenter
#Number of Interlacing steps: 2
#Grid Correction: yes
#Value of Om=0.310000
#Quadrupole as L2
#Octopole as L3
#Hexadecapole as L2L2
#k-centerbin	 k-eff	 Monopole-Pshotnoise	 Dipole	 Quadrupole	 Octopole	 Hexadecapole	 number of modes	 Pshotnoise
0.005000 0.007385 47822.970377 -2221.795407 -18941.906232 -3949.078999 -10775.005189 250 3666.033441
0.015000 0.016012 61778.976470 -918.162107 -14520.920372 -9628.916960 -9329.710435 1852 3666.033441
0.025000 0.025646 52682.251952 1351.199412 -1976.797041 648.842001 -12276.062052 5020 3666.033441
0.035000 0.035469 38413.094493 1856.721760 -4512.092225 -2149.737359 2979.819379 9756 3666.033441
0.045000 0.045368 30605.952525 279.139846 -3430.796029 1045.354772 2953.285292 16108 3666.033441
0.055000 0.055314 26036.146488 620.667579 -1879.433543 -1111.341723 -133.688039 24064 3666.033441
0.065000 0.065258 22480.499698 249.589185 -1755.463774 385.836368 -2183.201975 33396 3666.033441
0.075000 0.075209 19739.846879 534.877644 -1689.527018 -598.809653 -2121.390098 44596 3666.033441
0.085000 0.085175 16494.129038 496.514353 -190.768170 -385.013222 -1249.314888 57124 3666.033441
0.095000 0.095157 13122.173842 234.256588 -556.908722 553.796216 702.970208 71620 3666.033441
0.105000 0.105162 11344.990898 151.484981 -848.694924 101.225723 570.004080 87552 3666.033441
0.115000 0.115148 10147.181795 182.667507 -1137.948839 -286.833447 313.701028 104524 3666.033441
0.125000 0.125146 9522.098870 43.156690 -590.010299 -38.618244 -97.250685 124228 3666.033441
0.135000 0.135146 8699.263535 107.678199 -1000.084435 112.817347 -619.287212 144204 3666.033441
0.145000 0.145132 7683.294736 166.024597 -1285.742057 -56.967297 -16.189571 166492 3666.033441
0.155000 0.155114 6512.726699 160.449576 -517.816847 -120.422339 81.370282 189964 3666.033441
0.165000 0.165102 5918.574422 63.399199 -747.408051 54.279018 595.233848 215640 3666.033441
0.175000 0.175105 5345.615583 92.252751 -676.435822 -25.707344 -19.722806 242836 3666.033441
0.185000 0.185097 4911.352680 83.021807 -403.315532 -14.863066 210.047985 270556 3666.033441
0.195000 0.195085 4472.435138 63.586426 -667.199776 37.431041 417.061854 301084 3666.033441
0.205000 0.205080 4143.413653 36.075451 -893.419023 -17.055465 390.840438 332628 3666.033441
0.215000 0.215092 3731.913117 85.485232 -864.517296 -27.603727 157.695984 367216 3666.033441
0.225000 0.225099 3356.108407 57.534664 -823.415911 23.393846 263.981612 400444 3666.033441
0.235000 0.235081 3068.271434 61.934155 -888.496862 -33.260231 60.353607 436500 3666.033441
0.245000 0.245077 2818.236157 45.813736 -808.661973 -26.046211 156.335787 475900 3666.033441
0.255000 0.255082 2673.828570 33.412086 -769.217160 -8.378831 293.611401 514900 3666.033441
0.265000 0.265074 2483.120057 34.368524 -743.212355 -8.892891 311.046226 555408 3666.033441
0.275000 0.275066 2295.492974 50.549223 -804.727333 25.028461 164.414682 598684 3666.033441
0.285000 0.285066 2131.073290 32.252461 -781.216511 -8.729865 312.036376 643228 3666.033441
0.295000 0.295058 2032.534624 46.485074 -918.414325 -3.466322 427.321505 688036 3666.033441
