#Data file /home/DATA/sbrieden/Patchy_dr12_mocks/postrecon/original/Patchy-Mocks-DR12LOWZ-N-V5C-Portsmouth-mass_f0693b1850s10_0011.dat
#Random file /home/DATA/sbrieden/Patchy_dr12_mocks/postrecon/original/Patchy-Mocks-DR12LOWZ-N-V5C-Portsmouth-mass_f0693b1850s10_0011.ran
#Number of data elements used: 234099
#Number of random elements used: 4677968
#Effective number of data elements weighted by wcol: 234099.000000
#Effective number of random elements weighted by wcol: 4677968.000000
#Effective number of data elements weighted by wcol*wsys: 234099.000000
#Effective number of random elements weighted by wcol*wsys: 4677968.000000
#Effective redshift value from data 0.329983
#Effective redshift value from randoms 0.330066
#Size of the Box 2500.000000 Mpc/h
#Area of the survey used 5826.000000 deg^2
#Value of alpha: 0.050064
#Normalization using data file
#Normalization using density
#Normalization 4.340068
#Shot noise factor 1.000000
#Shot noise value 3656.805587
#Type of Computation: FFT
#Number of grid cells: 512
#Type of Mass Assigment: TSC
#Type of Yamamoto: GridCenter
#Number of Interlacing steps: 2
#Grid Correction: yes
#Value of Om=0.310000
#Quadrupole as L2
#Octopole as L3
#Hexadecapole as L2L2
#k-centerbin	 k-eff	 Monopole-Pshotnoise	 Dipole	 Quadrupole	 Octopole	 Hexadecapole	 number of modes	 Pshotnoise
0.005000 0.007385 25220.192499 -2165.853994 14824.952077 10451.876822 -6682.045531 250 3656.805587
0.015000 0.016012 45985.743973 437.637364 -12095.629594 -9935.261483 -8005.849496 1852 3656.805587
0.025000 0.025646 48874.745441 -1559.704626 -555.195080 1008.901027 -7384.966951 5020 3656.805587
0.035000 0.035469 40866.494364 2258.555749 4523.701353 1680.368827 11136.519041 9756 3656.805587
0.045000 0.045368 32804.879459 796.179685 -2592.110843 251.791437 2926.742748 16108 3656.805587
0.055000 0.055314 26277.909032 306.081674 1094.756017 706.319685 4939.768394 24064 3656.805587
0.065000 0.065258 24131.639858 269.212219 -1711.992477 481.734456 979.264499 33396 3656.805587
0.075000 0.075209 19506.449764 512.484365 -906.253790 -956.499414 1884.039830 44596 3656.805587
0.085000 0.085175 16887.857751 463.606715 -176.851919 81.670463 -222.156183 57124 3656.805587
0.095000 0.095157 13452.661950 314.790704 -1183.579106 25.788017 325.693240 71620 3656.805587
0.105000 0.105162 12147.097189 181.791245 -897.365357 85.694927 135.679475 87552 3656.805587
0.115000 0.115148 10227.037685 130.598604 -410.138587 -102.478031 -232.874633 104524 3656.805587
0.125000 0.125146 9254.656301 154.191010 -254.542382 -35.082028 -51.653398 124228 3656.805587
0.135000 0.135146 8414.615043 143.129669 -242.468761 34.220198 385.090465 144204 3656.805587
0.145000 0.145132 7281.738172 137.263827 -752.548153 -58.016721 97.546711 166492 3656.805587
0.155000 0.155114 6535.848940 160.219127 -415.045954 49.016365 -416.297275 189964 3656.805587
0.165000 0.165102 5755.207440 19.949821 -1215.406902 13.442160 621.091033 215640 3656.805587
0.175000 0.175105 5271.170182 105.104208 -863.381420 -24.684135 -9.683077 242836 3656.805587
0.185000 0.185097 4763.928262 36.702914 -534.740010 -20.337887 140.495828 270556 3656.805587
0.195000 0.195085 4442.490199 72.832068 -669.419856 78.249071 213.414947 301084 3656.805587
0.205000 0.205080 4054.311808 84.021816 -828.181568 -82.861517 629.907676 332628 3656.805587
0.215000 0.215092 3632.551967 60.094066 -770.621353 6.767234 190.521322 367216 3656.805587
0.225000 0.225099 3341.837266 62.866620 -757.774895 -68.512145 -111.295858 400444 3656.805587
0.235000 0.235081 3007.057591 44.262687 -645.556777 56.024761 267.283519 436500 3656.805587
0.245000 0.245077 2878.874699 32.759418 -817.033888 -26.556288 245.909547 475900 3656.805587
0.255000 0.255082 2648.205875 56.242608 -746.398169 -11.766331 148.525149 514900 3656.805587
0.265000 0.265074 2499.624418 51.113172 -753.578903 -34.023072 5.121632 555408 3656.805587
0.275000 0.275066 2301.038600 24.202679 -524.775619 3.099369 361.908057 598684 3656.805587
0.285000 0.285066 2111.292700 49.708037 -659.049504 -5.411294 223.038415 643228 3656.805587
0.295000 0.295058 1984.212038 35.480196 -666.723956 -9.955704 366.334993 688036 3656.805587
