#Data file /home/DATA/sbrieden/Patchy_dr12_mocks/postrecon/original/Patchy-Mocks-DR12LOWZ-S-V5C-Portsmouth-mass_f0693b1850s10_0040.dat
#Random file /home/DATA/sbrieden/Patchy_dr12_mocks/postrecon/original/Patchy-Mocks-DR12LOWZ-S-V5C-Portsmouth-mass_f0693b1850s10_0040.ran
#Number of data elements used: 101390
#Number of random elements used: 2007167
#Effective number of data elements weighted by wcol: 101390.000000
#Effective number of random elements weighted by wcol: 2007167.000000
#Effective number of data elements weighted by wcol*wsys: 101390.000000
#Effective number of random elements weighted by wcol*wsys: 2007167.000000
#Effective redshift value from data 0.329840
#Effective redshift value from randoms 0.330242
#Size of the Box 2500.000000 Mpc/h
#Area of the survey used 2501.000000 deg^2
#Value of alpha: 0.050409
#Normalization using data file
#Normalization using density
#Normalization 1.877130
#Shot noise factor 1.000000
#Shot noise value 3650.170920
#Type of Computation: FFT
#Number of grid cells: 512
#Type of Mass Assigment: TSC
#Type of Yamamoto: GridCenter
#Number of Interlacing steps: 2
#Grid Correction: yes
#Value of Om=0.310000
#Quadrupole as L2
#Octopole as L3
#Hexadecapole as L2L2
#k-centerbin	 k-eff	 Monopole-Pshotnoise	 Dipole	 Quadrupole	 Octopole	 Hexadecapole	 number of modes	 Pshotnoise
0.005000 0.007385 32507.970779 -14786.614975 -17486.372351 7017.019935 16948.967960 250 3650.170920
0.015000 0.016012 56251.549433 3975.585072 -18167.745484 -2139.815530 15517.940852 1852 3650.170920
0.025000 0.025646 44684.217193 579.411455 19009.276456 438.668979 -350.044594 5020 3650.170920
0.035000 0.035469 39921.952293 843.289039 -1195.684119 703.407993 -13850.013175 9756 3650.170920
0.045000 0.045368 30853.525790 115.200810 -8620.652610 2105.588400 3296.290212 16108 3650.170920
0.055000 0.055314 25938.833160 921.822521 -5587.417992 -1813.532152 2451.052662 24064 3650.170920
0.065000 0.065258 22402.949193 265.079964 -4018.758300 -548.139060 847.284081 33396 3650.170920
0.075000 0.075209 19895.934287 429.472101 366.598807 97.941488 2606.633991 44596 3650.170920
0.085000 0.085175 16164.584214 506.159996 -291.696961 146.824721 1829.505427 57124 3650.170920
0.095000 0.095157 13396.987007 192.773952 -2141.963982 111.561083 1739.335813 71620 3650.170920
0.105000 0.105162 11067.828722 301.097209 -119.810699 -194.418384 358.118080 87552 3650.170920
0.115000 0.115148 9343.533412 108.412426 -1050.178132 137.309520 93.329703 104524 3650.170920
0.125000 0.125146 9345.788214 125.542935 -1824.092081 -337.904533 -606.393908 124228 3650.170920
0.135000 0.135146 8309.740451 127.705701 -1001.684592 127.670543 -549.610173 144204 3650.170920
0.145000 0.145132 7117.201794 129.007872 -968.490909 -39.090585 105.602550 166492 3650.170920
0.155000 0.155114 6548.867479 94.469264 -1325.993096 -85.128585 -144.737639 189964 3650.170920
0.165000 0.165102 5807.500014 55.280567 -523.624025 96.031559 182.430127 215640 3650.170920
0.175000 0.175105 5253.733862 145.329271 -537.558072 -174.551375 -226.763590 242836 3650.170920
0.185000 0.185097 4920.395141 23.729438 -322.714152 47.390408 -51.798763 270556 3650.170920
0.195000 0.195085 4557.977866 88.627051 -644.770046 1.418946 -143.548312 301084 3650.170920
0.205000 0.205080 4014.357401 94.408961 -472.101793 -0.931485 155.654115 332628 3650.170920
0.215000 0.215092 3648.092712 29.990381 -824.112861 60.197196 575.349993 367216 3650.170920
0.225000 0.225099 3374.317338 62.351664 -711.826547 -92.944699 -0.514214 400444 3650.170920
0.235000 0.235081 3115.764788 45.140006 -780.754551 70.478054 99.800777 436500 3650.170920
0.245000 0.245077 2898.089808 41.217339 -846.000625 -61.808470 355.630385 475900 3650.170920
0.255000 0.255082 2545.222879 62.340347 -763.226070 -13.677208 -68.593464 514900 3650.170920
0.265000 0.265074 2361.166817 29.328404 -763.080280 69.240786 271.524536 555408 3650.170920
0.275000 0.275066 2184.115042 35.344403 -796.114207 -28.567973 466.395053 598684 3650.170920
0.285000 0.285066 2133.919848 45.877356 -716.324780 -33.599709 531.706502 643228 3650.170920
0.295000 0.295058 2028.815064 36.692053 -783.998156 -10.123217 348.888643 688036 3650.170920
