#Data file /home/DATA/sbrieden/Patchy_dr12_mocks/postrecon/original/Patchy-Mocks-DR12LOWZ-N-V5C-Portsmouth-mass_f0693b1850s10_0047.dat
#Random file /home/DATA/sbrieden/Patchy_dr12_mocks/postrecon/original/Patchy-Mocks-DR12LOWZ-N-V5C-Portsmouth-mass_f0693b1850s10_0047.ran
#Number of data elements used: 233785
#Number of random elements used: 4677891
#Effective number of data elements weighted by wcol: 233785.000000
#Effective number of random elements weighted by wcol: 4677891.000000
#Effective number of data elements weighted by wcol*wsys: 233785.000000
#Effective number of random elements weighted by wcol*wsys: 4677891.000000
#Effective redshift value from data 0.330414
#Effective redshift value from randoms 0.329839
#Size of the Box 2500.000000 Mpc/h
#Area of the survey used 5826.000000 deg^2
#Value of alpha: 0.050021
#Normalization using data file
#Normalization using density
#Normalization 4.334163
#Shot noise factor 1.000000
#Shot noise value 3656.186722
#Type of Computation: FFT
#Number of grid cells: 512
#Type of Mass Assigment: TSC
#Type of Yamamoto: GridCenter
#Number of Interlacing steps: 2
#Grid Correction: yes
#Value of Om=0.310000
#Quadrupole as L2
#Octopole as L3
#Hexadecapole as L2L2
#k-centerbin	 k-eff	 Monopole-Pshotnoise	 Dipole	 Quadrupole	 Octopole	 Hexadecapole	 number of modes	 Pshotnoise
0.005000 0.007385 22034.841423 -3400.298648 -850.694837 -5312.246883 -7632.652778 250 3656.186722
0.015000 0.016012 66906.646979 -1304.365409 -13609.449987 1635.666720 2207.687742 1852 3656.186722
0.025000 0.025646 52947.907679 1593.265350 -14606.741349 -3084.343642 1895.157077 5020 3656.186722
0.035000 0.035469 39585.960416 495.634790 -7682.232300 -385.330195 3084.789240 9756 3656.186722
0.045000 0.045368 32711.970533 1246.345501 -5740.305408 -1857.101275 2102.313365 16108 3656.186722
0.055000 0.055314 26703.486583 602.690769 580.932998 1471.778590 8178.785142 24064 3656.186722
0.065000 0.065258 21689.664331 500.750794 -2488.561835 -316.517296 4100.334270 33396 3656.186722
0.075000 0.075209 18818.557315 259.913613 -1556.905115 -799.302333 -1634.644061 44596 3656.186722
0.085000 0.085175 16423.280813 447.268983 -834.356704 203.388884 -182.704382 57124 3656.186722
0.095000 0.095157 12959.496810 260.533772 -1453.321684 -92.329560 819.302250 71620 3656.186722
0.105000 0.105162 11121.687013 255.039296 -843.535741 107.359339 317.374952 87552 3656.186722
0.115000 0.115148 10012.042473 85.104139 -1108.341403 -97.893411 442.674293 104524 3656.186722
0.125000 0.125146 9134.246393 88.823041 -759.764734 76.390959 313.269842 124228 3656.186722
0.135000 0.135146 8263.700569 182.559698 -989.423380 -229.266761 -639.057935 144204 3656.186722
0.145000 0.145132 7354.770831 140.172680 -578.154213 -57.865422 -50.878435 166492 3656.186722
0.155000 0.155114 6476.359140 103.799227 -113.512030 100.401697 445.971127 189964 3656.186722
0.165000 0.165102 5631.210609 104.536213 -508.916333 9.781649 470.705242 215640 3656.186722
0.175000 0.175105 5266.348084 31.375916 -923.699023 45.396152 26.993228 242836 3656.186722
0.185000 0.185097 4889.036067 36.657207 -805.120163 5.648075 -34.089335 270556 3656.186722
0.195000 0.195085 4491.692070 106.280648 -1074.063519 -44.373972 99.191197 301084 3656.186722
0.205000 0.205080 4088.105512 63.038862 -925.539484 -45.480712 110.120317 332628 3656.186722
0.215000 0.215092 3684.591229 72.020267 -523.388288 -18.923767 283.494800 367216 3656.186722
0.225000 0.225099 3386.448493 57.766444 -667.025426 6.137885 211.963123 400444 3656.186722
0.235000 0.235081 3085.815839 35.249512 -767.384444 16.880483 173.213788 436500 3656.186722
0.245000 0.245077 2826.667141 64.559707 -781.654932 -36.264117 217.022768 475900 3656.186722
0.255000 0.255082 2625.837754 26.970241 -821.028862 47.117608 283.804024 514900 3656.186722
0.265000 0.265074 2446.322324 50.364339 -770.480383 -64.319510 151.155816 555408 3656.186722
0.275000 0.275066 2274.248061 49.897206 -783.108587 2.821348 21.075889 598684 3656.186722
0.285000 0.285066 2069.002633 42.888867 -670.313836 -34.242200 325.324403 643228 3656.186722
0.295000 0.295058 1930.549540 22.033723 -787.597091 41.987841 238.506282 688036 3656.186722
