#Data file /home/DATA/sbrieden/Patchy_dr12_mocks/postrecon/original/Patchy-Mocks-DR12LOWZ-S-V5C-Portsmouth-mass_f0693b1850s10_0007.dat
#Random file /home/DATA/sbrieden/Patchy_dr12_mocks/postrecon/original/Patchy-Mocks-DR12LOWZ-S-V5C-Portsmouth-mass_f0693b1850s10_0007.ran
#Number of data elements used: 100776
#Number of random elements used: 2007816
#Effective number of data elements weighted by wcol: 100776.000000
#Effective number of random elements weighted by wcol: 2007816.000000
#Effective number of data elements weighted by wcol*wsys: 100776.000000
#Effective number of random elements weighted by wcol*wsys: 2007816.000000
#Effective redshift value from data 0.329808
#Effective redshift value from randoms 0.330307
#Size of the Box 2500.000000 Mpc/h
#Area of the survey used 2501.000000 deg^2
#Value of alpha: 0.050141
#Normalization using data file
#Normalization using density
#Normalization 1.866641
#Shot noise factor 1.000000
#Shot noise value 3647.016511
#Type of Computation: FFT
#Number of grid cells: 512
#Type of Mass Assigment: TSC
#Type of Yamamoto: GridCenter
#Number of Interlacing steps: 2
#Grid Correction: yes
#Value of Om=0.310000
#Quadrupole as L2
#Octopole as L3
#Hexadecapole as L2L2
#k-centerbin	 k-eff	 Monopole-Pshotnoise	 Dipole	 Quadrupole	 Octopole	 Hexadecapole	 number of modes	 Pshotnoise
0.005000 0.007385 53285.198598 -14637.436245 -44341.695382 6831.685759 17772.542317 250 3647.016511
0.015000 0.016012 58137.303210 2665.890370 -14581.423064 -11617.623448 -11315.049095 1852 3647.016511
0.025000 0.025646 46371.037988 702.813771 -10249.726400 -2059.394714 -198.802252 5020 3647.016511
0.035000 0.035469 38170.863320 992.351394 144.700382 -957.694322 -10474.542596 9756 3647.016511
0.045000 0.045368 30767.388365 641.865205 -4937.291780 -422.165577 -70.596385 16108 3647.016511
0.055000 0.055314 25222.748734 841.753675 -203.733601 557.796776 6048.578275 24064 3647.016511
0.065000 0.065258 21741.410653 130.610568 -211.918917 -631.328840 2303.366680 33396 3647.016511
0.075000 0.075209 19670.810513 375.164348 -557.214832 -41.356909 -1209.824191 44596 3647.016511
0.085000 0.085175 16335.500377 242.068883 -2533.784679 180.801877 -1134.800174 57124 3647.016511
0.095000 0.095157 13396.371849 435.501559 -2896.269671 -824.223828 -3936.844664 71620 3647.016511
0.105000 0.105162 11075.679660 150.042445 -470.142532 341.789182 -871.084333 87552 3647.016511
0.115000 0.115148 10650.909570 198.235756 -839.744524 -248.981822 -759.804958 104524 3647.016511
0.125000 0.125146 8968.226132 110.386182 -327.351355 234.133349 -439.209724 124228 3647.016511
0.135000 0.135146 8348.007830 115.755731 -1107.551492 -46.649878 -65.651751 144204 3647.016511
0.145000 0.145132 7375.840417 164.946536 -1000.388799 -233.482446 -588.018245 166492 3647.016511
0.155000 0.155114 6695.134475 73.517103 -473.640601 149.297103 -194.333320 189964 3647.016511
0.165000 0.165102 5969.080636 134.243207 -528.653087 -84.115553 -39.776292 215640 3647.016511
0.175000 0.175105 5192.136738 58.787753 -744.223339 54.543262 -121.585924 242836 3647.016511
0.185000 0.185097 4885.070227 59.232807 -893.705579 -1.927044 442.413567 270556 3647.016511
0.195000 0.195085 4566.924461 83.130170 -813.614393 -80.547259 253.766142 301084 3647.016511
0.205000 0.205080 4215.495702 12.911631 -899.697235 105.167008 110.166442 332628 3647.016511
0.215000 0.215092 3966.580203 105.050077 -763.023109 -164.891081 105.498300 367216 3647.016511
0.225000 0.225099 3322.424781 85.945428 -606.267732 10.892606 35.084892 400444 3647.016511
0.235000 0.235081 3040.171196 29.075600 -620.793821 45.115961 54.611942 436500 3647.016511
0.245000 0.245077 2796.228069 44.977616 -855.320496 -27.202855 264.793027 475900 3647.016511
0.255000 0.255082 2743.567329 10.458949 -758.959191 48.490706 304.838133 514900 3647.016511
0.265000 0.265074 2459.481946 80.061247 -956.216578 -33.799000 222.745118 555408 3647.016511
0.275000 0.275066 2322.088106 19.303848 -933.780991 -45.984201 133.753858 598684 3647.016511
0.285000 0.285066 2215.030262 42.043239 -870.486183 43.429994 84.599218 643228 3647.016511
0.295000 0.295058 2003.617522 60.026305 -741.411197 -66.116715 199.858167 688036 3647.016511
