#Data file /home/DATA/sbrieden/Patchy_dr12_mocks/postrecon/original/Patchy-Mocks-DR12LOWZ-S-V5C-Portsmouth-mass_f0693b1850s10_0068.dat
#Random file /home/DATA/sbrieden/Patchy_dr12_mocks/postrecon/original/Patchy-Mocks-DR12LOWZ-S-V5C-Portsmouth-mass_f0693b1850s10_0068.ran
#Number of data elements used: 100419
#Number of random elements used: 2003349
#Effective number of data elements weighted by wcol: 100419.000000
#Effective number of random elements weighted by wcol: 2003349.000000
#Effective number of data elements weighted by wcol*wsys: 100419.000000
#Effective number of random elements weighted by wcol*wsys: 2003349.000000
#Effective redshift value from data 0.330361
#Effective redshift value from randoms 0.329945
#Size of the Box 2500.000000 Mpc/h
#Area of the survey used 2501.000000 deg^2
#Value of alpha: 0.050178
#Normalization using data file
#Normalization using density
#Normalization 1.862122
#Shot noise factor 1.000000
#Shot noise value 3661.325266
#Type of Computation: FFT
#Number of grid cells: 512
#Type of Mass Assigment: TSC
#Type of Yamamoto: GridCenter
#Number of Interlacing steps: 2
#Grid Correction: yes
#Value of Om=0.310000
#Quadrupole as L2
#Octopole as L3
#Hexadecapole as L2L2
#k-centerbin	 k-eff	 Monopole-Pshotnoise	 Dipole	 Quadrupole	 Octopole	 Hexadecapole	 number of modes	 Pshotnoise
0.005000 0.007385 62658.396725 -17913.115230 -31111.088036 1626.652204 -14783.503373 250 3661.325266
0.015000 0.016012 65267.209591 -103.035556 -39713.279265 -4680.115233 1677.063441 1852 3661.325266
0.025000 0.025646 48503.775995 1541.372748 -10457.974836 -4987.660556 8063.988531 5020 3661.325266
0.035000 0.035469 37457.968217 1804.645956 -1365.236739 -3711.222589 -8378.297430 9756 3661.325266
0.045000 0.045368 31335.436922 42.401106 -1739.939284 1045.453162 -3243.643531 16108 3661.325266
0.055000 0.055314 25806.560144 1173.595380 147.836195 -1104.302028 -7184.399203 24064 3661.325266
0.065000 0.065258 21143.725993 278.426665 1258.328365 473.678210 -877.775176 33396 3661.325266
0.075000 0.075209 18507.914986 348.940188 -355.323523 137.972274 -1446.224053 44596 3661.325266
0.085000 0.085175 15144.188872 423.988966 -1013.687661 -333.221077 -518.585565 57124 3661.325266
0.095000 0.095157 12658.211478 120.426942 -1399.989420 303.052705 -1133.962936 71620 3661.325266
0.105000 0.105162 11513.999552 178.135367 -768.388399 34.510551 371.186347 87552 3661.325266
0.115000 0.115148 10653.993142 129.431563 -1382.379571 5.574516 -183.467834 104524 3661.325266
0.125000 0.125146 9361.387022 172.197046 -2455.725453 -152.953472 -247.808475 124228 3661.325266
0.135000 0.135146 8478.729912 117.979649 -1160.888546 -77.161302 613.851338 144204 3661.325266
0.145000 0.145132 7172.791170 156.665083 -1119.819308 -33.170363 -75.003677 166492 3661.325266
0.155000 0.155114 6614.559496 96.186312 -1124.786896 -37.447427 453.568621 189964 3661.325266
0.165000 0.165102 5900.200094 113.313785 -631.099646 -123.000998 503.125552 215640 3661.325266
0.175000 0.175105 5353.343503 58.157486 -314.207001 163.355103 831.256566 242836 3661.325266
0.185000 0.185097 4974.076942 61.044095 -898.843786 29.465839 757.078942 270556 3661.325266
0.195000 0.195085 4466.337634 96.677477 -940.706286 -137.902540 669.397298 301084 3661.325266
0.205000 0.205080 4034.337201 38.293167 -725.458019 40.100764 404.615385 332628 3661.325266
0.215000 0.215092 3767.178009 66.795125 -696.903612 21.894815 362.836092 367216 3661.325266
0.225000 0.225099 3345.715690 34.987608 -814.940773 -36.347844 396.507887 400444 3661.325266
0.235000 0.235081 3172.005940 69.887073 -885.516923 -22.575527 315.342426 436500 3661.325266
0.245000 0.245077 3068.512150 30.386279 -698.010998 -5.843590 383.444618 475900 3661.325266
0.255000 0.255082 2705.140165 67.855858 -653.220359 -16.037240 442.729587 514900 3661.325266
0.265000 0.265074 2524.600078 37.858489 -772.999500 -16.302725 89.182652 555408 3661.325266
0.275000 0.275066 2267.461675 58.358039 -712.514982 -15.312941 77.943815 598684 3661.325266
0.285000 0.285066 2115.860815 44.608587 -804.600329 29.962482 250.113297 643228 3661.325266
0.295000 0.295058 1932.427756 22.467644 -884.727015 -3.576629 382.839269 688036 3661.325266
