#Data file /home/DATA/sbrieden/Patchy_dr12_mocks/postrecon/original/Patchy-Mocks-DR12LOWZ-N-V5C-Portsmouth-mass_f0693b1850s10_0098.dat
#Random file /home/DATA/sbrieden/Patchy_dr12_mocks/postrecon/original/Patchy-Mocks-DR12LOWZ-N-V5C-Portsmouth-mass_f0693b1850s10_0098.ran
#Number of data elements used: 234146
#Number of random elements used: 4680970
#Effective number of data elements weighted by wcol: 234146.000000
#Effective number of random elements weighted by wcol: 4680970.000000
#Effective number of data elements weighted by wcol*wsys: 234146.000000
#Effective number of random elements weighted by wcol*wsys: 4680970.000000
#Effective redshift value from data 0.330457
#Effective redshift value from randoms 0.329780
#Size of the Box 2500.000000 Mpc/h
#Area of the survey used 5826.000000 deg^2
#Value of alpha: 0.050147
#Normalization using data file
#Normalization using density
#Normalization 4.345591
#Shot noise factor 1.000000
#Shot noise value 3665.733118
#Type of Computation: FFT
#Number of grid cells: 512
#Type of Mass Assigment: TSC
#Type of Yamamoto: GridCenter
#Number of Interlacing steps: 2
#Grid Correction: yes
#Value of Om=0.310000
#Quadrupole as L2
#Octopole as L3
#Hexadecapole as L2L2
#k-centerbin	 k-eff	 Monopole-Pshotnoise	 Dipole	 Quadrupole	 Octopole	 Hexadecapole	 number of modes	 Pshotnoise
0.005000 0.007385 48909.740532 1341.900202 -12068.679103 534.091280 7490.126012 250 3665.733118
0.015000 0.016012 50906.013647 -3606.397831 -25314.469538 -13308.846961 -9239.569045 1852 3665.733118
0.025000 0.025646 52502.350494 2670.944385 -7252.841042 -2821.623973 -17339.097284 5020 3665.733118
0.035000 0.035469 37010.857249 1053.993820 366.983506 -88.109943 2685.706643 9756 3665.733118
0.045000 0.045368 31160.163976 686.141074 2715.533846 -252.878136 -2507.825160 16108 3665.733118
0.055000 0.055314 26664.601366 607.229017 -3437.774340 273.864058 -1870.864709 24064 3665.733118
0.065000 0.065258 22293.835064 167.074075 -2583.490154 -161.971387 -2566.251087 33396 3665.733118
0.075000 0.075209 20689.521488 514.566749 -1036.420691 -534.686998 461.024446 44596 3665.733118
0.085000 0.085175 16528.876752 379.442698 -483.764635 359.255075 1402.247692 57124 3665.733118
0.095000 0.095157 13005.335837 335.928007 -1834.547829 -137.295089 -167.952192 71620 3665.733118
0.105000 0.105162 11283.341661 128.504801 -1378.465604 -34.159566 347.067575 87552 3665.733118
0.115000 0.115148 10281.760088 102.505601 -1193.208192 96.695425 -35.584194 104524 3665.733118
0.125000 0.125146 9291.779417 162.431040 -1353.537890 62.810080 581.390258 124228 3665.733118
0.135000 0.135146 8440.298871 142.919706 -1139.391215 -193.809732 746.921422 144204 3665.733118
0.145000 0.145132 7503.555852 158.788417 -989.203365 27.783404 704.549596 166492 3665.733118
0.155000 0.155114 6387.694794 111.185544 -966.530513 -125.843223 358.074110 189964 3665.733118
0.165000 0.165102 5702.531708 83.550923 -719.686713 -13.706042 -126.472544 215640 3665.733118
0.175000 0.175105 5281.604028 68.871200 -567.085973 -53.314842 -123.662900 242836 3665.733118
0.185000 0.185097 4870.606635 57.583524 -702.165517 49.104763 -279.106418 270556 3665.733118
0.195000 0.195085 4523.784637 73.147137 -476.575376 -45.584921 203.742402 301084 3665.733118
0.205000 0.205080 4247.177528 56.797764 -615.119671 58.834982 43.982967 332628 3665.733118
0.215000 0.215092 3832.145663 75.768466 -848.880298 -68.481137 21.088000 367216 3665.733118
0.225000 0.225099 3414.887574 81.667349 -653.303701 16.479312 302.138270 400444 3665.733118
0.235000 0.235081 3073.354921 29.582880 -641.651065 3.392007 206.920555 436500 3665.733118
0.245000 0.245077 2811.144038 45.313162 -656.141929 -31.194896 78.033279 475900 3665.733118
0.255000 0.255082 2743.415415 32.089710 -946.805175 42.827847 116.663223 514900 3665.733118
0.265000 0.265074 2543.256905 41.729914 -869.207448 -21.532740 371.989648 555408 3665.733118
0.275000 0.275066 2391.046461 38.982516 -860.274582 -15.333401 171.171783 598684 3665.733118
0.285000 0.285066 2196.625869 51.952784 -933.366368 4.321680 291.130735 643228 3665.733118
0.295000 0.295058 2059.689037 33.978913 -800.643893 -11.526433 388.652775 688036 3665.733118
