#Data file /home/DATA/sbrieden/Patchy_dr12_mocks/postrecon/original/Patchy-Mocks-DR12LOWZ-N-V5C-Portsmouth-mass_f0693b1850s10_0076.dat
#Random file /home/DATA/sbrieden/Patchy_dr12_mocks/postrecon/original/Patchy-Mocks-DR12LOWZ-N-V5C-Portsmouth-mass_f0693b1850s10_0076.ran
#Number of data elements used: 235810
#Number of random elements used: 4681992
#Effective number of data elements weighted by wcol: 235810.000000
#Effective number of random elements weighted by wcol: 4681992.000000
#Effective number of data elements weighted by wcol*wsys: 235810.000000
#Effective number of random elements weighted by wcol*wsys: 4681992.000000
#Effective redshift value from data 0.330047
#Effective redshift value from randoms 0.330126
#Size of the Box 2500.000000 Mpc/h
#Area of the survey used 5826.000000 deg^2
#Value of alpha: 0.050363
#Normalization using data file
#Normalization using density
#Normalization 4.370272
#Shot noise factor 1.000000
#Shot noise value 3652.926582
#Type of Computation: FFT
#Number of grid cells: 512
#Type of Mass Assigment: TSC
#Type of Yamamoto: GridCenter
#Number of Interlacing steps: 2
#Grid Correction: yes
#Value of Om=0.310000
#Quadrupole as L2
#Octopole as L3
#Hexadecapole as L2L2
#k-centerbin	 k-eff	 Monopole-Pshotnoise	 Dipole	 Quadrupole	 Octopole	 Hexadecapole	 number of modes	 Pshotnoise
0.005000 0.007385 28182.503062 -2497.539902 156.646340 -17685.448330 -16116.689476 250 3652.926582
0.015000 0.016012 46127.196831 -3386.150188 1229.127994 188.132594 -9889.681294 1852 3652.926582
0.025000 0.025646 48408.597485 2449.643089 -9134.205753 -4324.151293 -17685.412623 5020 3652.926582
0.035000 0.035469 34975.830689 -102.123297 -1802.053639 1061.090692 -8272.243709 9756 3652.926582
0.045000 0.045368 31267.302056 817.465678 -1649.186312 -603.291611 890.838622 16108 3652.926582
0.055000 0.055314 27192.160749 655.987550 173.268698 239.752381 3373.670031 24064 3652.926582
0.065000 0.065258 23195.539710 228.505243 44.380686 -15.954474 1509.428092 33396 3652.926582
0.075000 0.075209 19067.411733 734.212301 -1486.329818 -48.818027 2794.118049 44596 3652.926582
0.085000 0.085175 16161.675819 183.236503 -304.732541 577.866530 3664.083570 57124 3652.926582
0.095000 0.095157 13494.596882 316.055480 -1409.159888 -242.530341 1261.546005 71620 3652.926582
0.105000 0.105162 11640.595089 175.326843 -925.897620 7.756668 357.937031 87552 3652.926582
0.115000 0.115148 10305.069507 163.113874 -1277.667825 -202.078446 500.280166 104524 3652.926582
0.125000 0.125146 9312.985250 146.472854 -504.155762 -115.104978 -368.322130 124228 3652.926582
0.135000 0.135146 8555.416817 126.054540 -39.691654 -11.362514 -505.704904 144204 3652.926582
0.145000 0.145132 7524.421985 152.511528 -338.988522 30.108211 25.319712 166492 3652.926582
0.155000 0.155114 6393.135420 141.203252 -382.711601 -38.094001 -104.589675 189964 3652.926582
0.165000 0.165102 5686.218623 68.512469 -248.990003 86.878851 17.121914 215640 3652.926582
0.175000 0.175105 5318.574761 41.445864 -773.669328 -65.327127 185.234291 242836 3652.926582
0.185000 0.185097 4929.598374 68.658300 -793.343842 54.884472 -260.235741 270556 3652.926582
0.195000 0.195085 4371.832518 95.481127 -590.870949 -55.421700 -31.714083 301084 3652.926582
0.205000 0.205080 4145.041375 59.809992 -715.756815 35.126667 170.219295 332628 3652.926582
0.215000 0.215092 3706.186183 62.151912 -692.337077 -12.954567 310.971764 367216 3652.926582
0.225000 0.225099 3407.185753 49.621734 -799.038223 -40.991755 -178.320875 400444 3652.926582
0.235000 0.235081 3071.091717 59.167580 -676.322770 14.081594 172.986367 436500 3652.926582
0.245000 0.245077 2890.872720 57.634531 -681.987075 -38.721720 41.068065 475900 3652.926582
0.255000 0.255082 2658.560111 18.743574 -732.088631 36.758634 227.576534 514900 3652.926582
0.265000 0.265074 2600.937878 45.834644 -769.278150 13.972638 293.891359 555408 3652.926582
0.275000 0.275066 2343.414950 44.694981 -883.444506 -30.839597 286.723087 598684 3652.926582
0.285000 0.285066 2119.153318 40.465701 -974.701184 27.572676 232.121222 643228 3652.926582
0.295000 0.295058 2040.373088 41.270585 -916.831543 -72.947501 307.262723 688036 3652.926582
