#Data file /home/DATA/sbrieden/Patchy_dr12_mocks/postrecon/original/Patchy-Mocks-DR12CMASS-N-V6C-Portsmouth-mass_f0784b1850s10_0018.dat
#Random file /home/DATA/sbrieden/Patchy_dr12_mocks/postrecon/original/Patchy-Mocks-DR12CMASS-N-V6C-Portsmouth-mass_f0784b1850s10_0018.ran
#Number of data elements used: 588434
#Number of random elements used: 11785127
#Effective number of data elements weighted by wcol: 588434.000000
#Effective number of random elements weighted by wcol: 11785127.000000
#Effective number of data elements weighted by wcol*wsys: 588434.000000
#Effective number of random elements weighted by wcol*wsys: 11785127.000000
#Effective redshift value from data 0.597781
#Effective redshift value from randoms 0.597765
#Size of the Box 3700.000000 Mpc/h
#Area of the survey used 6851.000000 deg^2
#Value of alpha: 0.049992
#Normalization using data file
#Normalization using density
#Normalization 11.059244
#Shot noise factor 1.000000
#Shot noise value 4967.520203
#Type of Computation: FFT
#Number of grid cells: 512
#Type of Mass Assigment: TSC
#Type of Yamamoto: GridCenter
#Number of Interlacing steps: 2
#Grid Correction: yes
#Value of Om=0.310000
#Quadrupole as L2
#Octopole as L3
#Hexadecapole as L2L2
#k-centerbin	 k-eff	 Monopole-Pshotnoise	 Dipole	 Quadrupole	 Octopole	 Hexadecapole	 number of modes	 Pshotnoise
0.005000 0.007485 24109.807121 -3395.362738 -6218.879869 1802.504677 5405.701005 846 4967.520203
0.015000 0.016072 52354.132214 25.391143 -3759.596484 -1785.164717 -1882.223454 6012 4967.520203
0.025000 0.025646 47981.738640 413.005362 -7008.638874 39.010077 9205.764331 16172 4967.520203
0.035000 0.035469 36725.543832 639.790273 -1343.268225 -435.956507 -3608.283625 31764 4967.520203
0.045000 0.045378 27658.225079 569.893572 -1313.217392 223.515214 -597.042726 52164 4967.520203
0.055000 0.055280 23093.569731 274.531266 -4030.692907 -271.538766 -1749.387638 77396 4967.520203
0.065000 0.065232 20176.255336 140.514087 -1999.165500 -178.336677 84.700465 108936 4967.520203
0.075000 0.075229 17989.836180 257.528634 -2024.199899 121.177255 1069.234707 144980 4967.520203
0.085000 0.085193 15042.323731 264.617099 -1852.858515 -355.770155 -2.460321 184854 4967.520203
0.095000 0.095166 12129.778321 107.545324 -760.844055 226.742607 86.837474 232260 4967.520203
0.105000 0.105155 10411.415944 170.187040 -1083.918639 -87.881546 621.443965 282884 4967.520203
0.115000 0.115131 9462.182949 90.569661 -882.619427 -65.947854 -142.210486 339084 4967.520203
0.125000 0.125124 8725.931835 44.345164 -856.790380 112.818507 901.189910 401864 4967.520203
0.135000 0.135125 8014.270648 102.999611 -923.162263 -81.125405 475.533199 468084 4967.520203
0.145000 0.145120 7149.797672 71.693940 -934.436786 10.063572 70.282507 539940 4967.520203
0.155000 0.155118 6241.676989 104.290542 -887.025635 -24.722907 322.423764 617324 4967.520203
0.165000 0.165105 5603.713336 60.274330 -568.167691 1.507112 149.878314 697452 4967.520203
0.175000 0.175088 5012.546066 68.508407 -583.760532 -37.674635 366.276602 785846 4967.520203
0.185000 0.185089 4762.270078 52.861704 -233.212433 -25.704324 33.033507 879528 4967.520203
0.195000 0.195093 4499.005408 45.341198 -476.049682 28.921154 33.233456 976596 4967.520203
0.205000 0.205084 4051.549763 75.455424 -756.878860 4.208590 260.794406 1077212 4967.520203
0.215000 0.215076 3614.216423 63.267883 -635.505054 -24.496896 111.985705 1186908 4967.520203
0.225000 0.225076 3235.453582 48.219997 -694.702743 13.585599 286.858790 1299452 4967.520203
0.235000 0.235073 3035.924914 43.746932 -609.700992 -11.504920 315.935141 1417356 4967.520203
0.245000 0.245067 2855.107826 45.189256 -709.928900 2.437915 207.645012 1539600 4967.520203
0.255000 0.255064 2640.483277 51.020164 -674.437878 -2.835865 236.660818 1669820 4967.520203
0.265000 0.265061 2501.095051 43.308526 -712.391717 -8.116830 210.146474 1801086 4967.520203
0.275000 0.275060 2330.856039 48.310271 -797.847681 -0.350156 373.331426 1942244 4967.520203
0.285000 0.285062 2150.225745 51.172785 -777.024278 -22.931664 158.768381 2084796 4967.520203
0.295000 0.295057 2053.122070 44.049717 -743.138915 0.544919 299.718436 2231868 4967.520203
