#Data file /home/DATA/sbrieden/Patchy_dr12_mocks/postrecon/original/Patchy-Mocks-DR12CMASS-S-V6C-Portsmouth-mass_f0784b1850s10_0079.dat
#Random file /home/DATA/sbrieden/Patchy_dr12_mocks/postrecon/original/Patchy-Mocks-DR12CMASS-S-V6C-Portsmouth-mass_f0784b1850s10_0079.ran
#Number of data elements used: 212960
#Number of random elements used: 4281398
#Effective number of data elements weighted by wcol: 212960.000000
#Effective number of random elements weighted by wcol: 4281398.000000
#Effective number of data elements weighted by wcol*wsys: 212960.000000
#Effective number of random elements weighted by wcol*wsys: 4281398.000000
#Effective redshift value from data 0.597044
#Effective redshift value from randoms 0.597091
#Size of the Box 3700.000000 Mpc/h
#Area of the survey used 2525.000000 deg^2
#Value of alpha: 0.049829
#Normalization using data file
#Normalization using density
#Normalization 4.045162
#Shot noise factor 1.000000
#Shot noise value 4957.088073
#Type of Computation: FFT
#Number of grid cells: 512
#Type of Mass Assigment: TSC
#Type of Yamamoto: GridCenter
#Number of Interlacing steps: 2
#Grid Correction: yes
#Value of Om=0.310000
#Quadrupole as L2
#Octopole as L3
#Hexadecapole as L2L2
#k-centerbin	 k-eff	 Monopole-Pshotnoise	 Dipole	 Quadrupole	 Octopole	 Hexadecapole	 number of modes	 Pshotnoise
0.005000 0.007485 42851.408000 -3568.626427 -18924.845052 -4439.511706 -5024.923343 846 4957.088073
0.015000 0.016072 59282.334705 -791.793039 -6805.694865 47.279352 9210.441955 6012 4957.088073
0.025000 0.025646 46074.344890 1380.052830 400.106076 -981.336488 6360.444005 16172 4957.088073
0.035000 0.035469 34801.989893 643.377038 57.364246 1689.592866 4944.107402 31764 4957.088073
0.045000 0.045378 26431.645829 335.387750 -3164.358997 -33.922489 5790.828177 52164 4957.088073
0.055000 0.055280 22103.294922 261.263003 -2834.133203 -249.216894 3514.464339 77396 4957.088073
0.065000 0.065232 19949.259618 249.653851 -261.319490 -279.827797 -1096.817107 108936 4957.088073
0.075000 0.075229 16763.373098 121.371276 -2139.557729 160.186545 344.852604 144980 4957.088073
0.085000 0.085193 14508.450684 325.703987 -3776.155150 -327.408638 -1730.118066 184854 4957.088073
0.095000 0.095166 11582.258993 129.061097 -2217.597067 5.311366 -931.428315 232260 4957.088073
0.105000 0.105155 9836.322502 86.208781 -1964.709472 23.211622 388.392921 282884 4957.088073
0.115000 0.115131 9410.403263 36.039947 -1417.038400 8.377551 1116.181533 339084 4957.088073
0.125000 0.125124 9017.251675 108.007422 -1212.880219 -149.688190 -344.482201 401864 4957.088073
0.135000 0.135125 7846.635716 143.750555 -1259.287493 -25.861103 107.004778 468084 4957.088073
0.145000 0.145120 6764.077196 59.873779 -880.694905 2.844154 -40.162543 539940 4957.088073
0.155000 0.155118 5927.994395 79.971349 -493.890963 21.941691 -543.075752 617324 4957.088073
0.165000 0.165105 5493.193169 61.753143 -1023.820239 -17.091205 12.062880 697452 4957.088073
0.175000 0.175088 5032.121462 66.807206 -755.076497 -18.825470 495.652881 785846 4957.088073
0.185000 0.185089 4549.959437 57.235948 -615.732107 -67.862967 116.742109 879528 4957.088073
0.195000 0.195093 4300.179976 52.822866 -566.921634 33.266768 -369.414967 976596 4957.088073
0.205000 0.205084 3933.079757 61.841469 -881.085514 7.221150 260.063623 1077212 4957.088073
0.215000 0.215076 3530.421856 52.409503 -854.246212 -2.649677 129.504886 1186908 4957.088073
0.225000 0.225076 3197.234811 54.307361 -874.044491 -27.478558 -49.965348 1299452 4957.088073
0.235000 0.235073 3009.694089 53.287096 -581.883642 -19.791229 380.241306 1417356 4957.088073
0.245000 0.245067 2777.605984 50.053586 -480.688330 -10.519038 56.944137 1539600 4957.088073
0.255000 0.255064 2690.762086 36.439892 -806.760774 13.612852 86.008121 1669820 4957.088073
0.265000 0.265061 2367.427352 45.924782 -916.292743 7.674321 99.315474 1801086 4957.088073
0.275000 0.275060 2244.943067 46.783214 -760.228604 -13.348316 79.368229 1942244 4957.088073
0.285000 0.285062 2074.168754 51.542683 -634.358062 -15.883174 265.833824 2084796 4957.088073
0.295000 0.295057 1951.285688 51.620718 -700.757285 -9.628898 224.548206 2231868 4957.088073
