#Data file /home/DATA/sbrieden/Patchy_dr12_mocks/postrecon/original/Patchy-Mocks-DR12LOWZ-N-V5C-Portsmouth-mass_f0693b1850s10_0094.dat
#Random file /home/DATA/sbrieden/Patchy_dr12_mocks/postrecon/original/Patchy-Mocks-DR12LOWZ-N-V5C-Portsmouth-mass_f0693b1850s10_0094.ran
#Number of data elements used: 235602
#Number of random elements used: 4675932
#Effective number of data elements weighted by wcol: 235602.000000
#Effective number of random elements weighted by wcol: 4675932.000000
#Effective number of data elements weighted by wcol*wsys: 235602.000000
#Effective number of random elements weighted by wcol*wsys: 4675932.000000
#Effective redshift value from data 0.330324
#Effective redshift value from randoms 0.329870
#Size of the Box 2500.000000 Mpc/h
#Area of the survey used 5826.000000 deg^2
#Value of alpha: 0.050395
#Normalization using data file
#Normalization using density
#Normalization 4.368551
#Shot noise factor 1.000000
#Shot noise value 3656.709382
#Type of Computation: FFT
#Number of grid cells: 512
#Type of Mass Assigment: TSC
#Type of Yamamoto: GridCenter
#Number of Interlacing steps: 2
#Grid Correction: yes
#Value of Om=0.310000
#Quadrupole as L2
#Octopole as L3
#Hexadecapole as L2L2
#k-centerbin	 k-eff	 Monopole-Pshotnoise	 Dipole	 Quadrupole	 Octopole	 Hexadecapole	 number of modes	 Pshotnoise
0.005000 0.007385 68766.401442 -14199.039179 -30545.874019 -17260.342694 -22420.709529 250 3656.709382
0.015000 0.016012 58643.033962 3131.382169 -11912.806709 -12089.979781 -11325.825979 1852 3656.709382
0.025000 0.025646 49107.336230 1110.330475 10879.251505 2286.407925 -992.235867 5020 3656.709382
0.035000 0.035469 40140.133422 342.846808 -8277.859124 2187.803895 3967.247585 9756 3656.709382
0.045000 0.045368 31280.976510 1029.297713 -7181.405517 -1976.951546 2441.812047 16108 3656.709382
0.055000 0.055314 26331.574683 478.222863 -1004.480264 -156.655056 -1579.935852 24064 3656.709382
0.065000 0.065258 22649.974083 304.507628 -2729.633530 138.642729 3150.689242 33396 3656.709382
0.075000 0.075209 20423.940935 487.050064 -1041.164241 -556.221938 397.503500 44596 3656.709382
0.085000 0.085175 16820.600702 427.883440 -1258.265190 311.025376 1739.118567 57124 3656.709382
0.095000 0.095157 13359.915670 334.961650 -775.651127 -75.635351 1151.801698 71620 3656.709382
0.105000 0.105162 11435.043332 225.525544 -925.725655 -305.267304 -1450.864346 87552 3656.709382
0.115000 0.115148 10529.331493 81.868818 -454.776572 157.051557 -232.372439 104524 3656.709382
0.125000 0.125146 9187.834249 181.292341 -830.123293 -0.070268 -495.193145 124228 3656.709382
0.135000 0.135146 8663.132041 96.228881 -554.222689 -26.485194 -143.728946 144204 3656.709382
0.145000 0.145132 7137.308854 161.065216 -826.851214 -18.705304 786.071135 166492 3656.709382
0.155000 0.155114 6606.665014 78.961539 -693.114606 73.662222 -147.602863 189964 3656.709382
0.165000 0.165102 5891.314101 104.902414 -748.175403 -104.902714 529.568621 215640 3656.709382
0.175000 0.175105 5501.718423 95.520691 -503.169763 64.562740 203.145970 242836 3656.709382
0.185000 0.185097 4745.032725 48.737606 -688.433604 -79.290399 432.408054 270556 3656.709382
0.195000 0.195085 4556.217798 97.524372 -538.062885 -24.316390 -3.724885 301084 3656.709382
0.205000 0.205080 4052.678575 66.384038 -573.203868 -6.814489 -78.717477 332628 3656.709382
0.215000 0.215092 3676.222998 56.554774 -495.041097 -2.493608 12.096391 367216 3656.709382
0.225000 0.225099 3300.608524 47.174104 -882.208783 54.529454 -12.034737 400444 3656.709382
0.235000 0.235081 3113.383384 62.847372 -959.102643 -48.721954 207.518699 436500 3656.709382
0.245000 0.245077 2865.884751 33.577913 -691.962794 5.994055 275.556496 475900 3656.709382
0.255000 0.255082 2669.464233 27.635644 -882.566689 27.141529 327.045077 514900 3656.709382
0.265000 0.265074 2448.408026 55.962173 -817.469086 -60.342120 170.609623 555408 3656.709382
0.275000 0.275066 2376.240364 49.301098 -755.989514 49.610220 427.321114 598684 3656.709382
0.285000 0.285066 2104.802493 44.014466 -860.409019 -58.972946 383.620945 643228 3656.709382
0.295000 0.295058 1966.873309 35.062839 -758.134418 15.722743 330.145200 688036 3656.709382
