#Data file /home/DATA/sbrieden/Patchy_dr12_mocks/postrecon/original/Patchy-Mocks-DR12CMASS-N-V6C-Portsmouth-mass_f0784b1850s10_0073.dat
#Random file /home/DATA/sbrieden/Patchy_dr12_mocks/postrecon/original/Patchy-Mocks-DR12CMASS-N-V6C-Portsmouth-mass_f0784b1850s10_0073.ran
#Number of data elements used: 587242
#Number of random elements used: 11782565
#Effective number of data elements weighted by wcol: 587242.000000
#Effective number of random elements weighted by wcol: 11782565.000000
#Effective number of data elements weighted by wcol*wsys: 587242.000000
#Effective number of random elements weighted by wcol*wsys: 11782565.000000
#Effective redshift value from data 0.597829
#Effective redshift value from randoms 0.597759
#Size of the Box 3700.000000 Mpc/h
#Area of the survey used 6851.000000 deg^2
#Value of alpha: 0.049859
#Normalization using data file
#Normalization using density
#Normalization 11.028553
#Shot noise factor 1.000000
#Shot noise value 4967.611996
#Type of Computation: FFT
#Number of grid cells: 512
#Type of Mass Assigment: TSC
#Type of Yamamoto: GridCenter
#Number of Interlacing steps: 2
#Grid Correction: yes
#Value of Om=0.310000
#Quadrupole as L2
#Octopole as L3
#Hexadecapole as L2L2
#k-centerbin	 k-eff	 Monopole-Pshotnoise	 Dipole	 Quadrupole	 Octopole	 Hexadecapole	 number of modes	 Pshotnoise
0.005000 0.007485 46000.611662 -1199.830929 -10631.654520 -3849.675232 -9577.873970 846 4967.611996
0.015000 0.016072 44319.663296 -642.256840 -8295.569023 -939.641147 -6832.366823 6012 4967.611996
0.025000 0.025646 45974.848713 599.240904 -17698.679900 -2438.110139 -3155.710488 16172 4967.611996
0.035000 0.035469 34561.934245 598.567762 -4305.162908 -1037.274654 -5226.307572 31764 4967.611996
0.045000 0.045378 28123.420204 650.500139 255.928013 -544.937633 -3430.549161 52164 4967.611996
0.055000 0.055280 23379.419855 100.055325 -117.383345 280.410352 -4079.935942 77396 4967.611996
0.065000 0.065232 20735.222465 212.161166 -2213.001477 30.555677 -671.115836 108936 4967.611996
0.075000 0.075229 17866.774535 232.347533 -2578.991574 -106.810939 84.091490 144980 4967.611996
0.085000 0.085193 14770.417196 224.623121 -1546.308380 -62.890882 -1001.096025 184854 4967.611996
0.095000 0.095166 12303.305342 206.569859 -1135.429672 -125.085264 268.672511 232260 4967.611996
0.105000 0.105155 10570.166473 121.989698 -940.018989 13.085096 -16.291427 282884 4967.611996
0.115000 0.115131 9407.555345 83.350734 -900.329437 12.399894 -288.962431 339084 4967.611996
0.125000 0.125124 8799.763657 44.670204 -1366.837903 -6.591501 -179.525655 401864 4967.611996
0.135000 0.135125 8171.623290 115.309411 -1113.035162 -73.042499 -196.547556 468084 4967.611996
0.145000 0.145120 7104.252656 85.105053 -578.600882 -12.821924 172.823101 539940 4967.611996
0.155000 0.155118 6286.673296 94.375726 -755.259956 -21.722301 -105.256316 617324 4967.611996
0.165000 0.165105 5407.421466 66.480209 -620.377070 21.927744 -131.423387 697452 4967.611996
0.175000 0.175088 5035.594415 57.578942 -677.452558 -33.257532 102.378960 785846 4967.611996
0.185000 0.185089 4679.452126 60.867969 -462.421166 -5.569178 7.501889 879528 4967.611996
0.195000 0.195093 4434.831444 51.302187 -480.199845 -2.789902 89.144928 976596 4967.611996
0.205000 0.205084 3969.977563 61.418717 -378.979270 -20.612854 161.362316 1077212 4967.611996
0.215000 0.215076 3667.698478 51.889825 -469.578987 37.116659 200.823827 1186908 4967.611996
0.225000 0.225076 3283.215054 73.197745 -559.979609 -40.409710 115.636738 1299452 4967.611996
0.235000 0.235073 3042.647526 28.732511 -616.639064 33.540435 104.381014 1417356 4967.611996
0.245000 0.245067 2892.362841 51.352074 -657.345359 -19.654415 299.770084 1539600 4967.611996
0.255000 0.255064 2703.393841 49.349730 -573.664955 10.004738 161.542962 1669820 4967.611996
0.265000 0.265061 2438.857152 40.014081 -652.799123 2.452702 186.420856 1801086 4967.611996
0.275000 0.275060 2310.114341 61.216342 -723.432475 -23.414787 167.383581 1942244 4967.611996
0.285000 0.285062 2108.983307 37.914802 -699.742922 9.111203 342.750004 2084796 4967.611996
0.295000 0.295057 2003.808707 46.144446 -808.402493 -1.368459 186.389602 2231868 4967.611996
