#Data file /home/DATA/sbrieden/Patchy_dr12_mocks/postrecon/original/Patchy-Mocks-DR12LOWZ-N-V5C-Portsmouth-mass_f0693b1850s10_0061.dat
#Random file /home/DATA/sbrieden/Patchy_dr12_mocks/postrecon/original/Patchy-Mocks-DR12LOWZ-N-V5C-Portsmouth-mass_f0693b1850s10_0061.ran
#Number of data elements used: 234056
#Number of random elements used: 4682314
#Effective number of data elements weighted by wcol: 234056.000000
#Effective number of random elements weighted by wcol: 4682314.000000
#Effective number of data elements weighted by wcol*wsys: 234056.000000
#Effective number of random elements weighted by wcol*wsys: 4682314.000000
#Effective redshift value from data 0.330244
#Effective redshift value from randoms 0.329874
#Size of the Box 2500.000000 Mpc/h
#Area of the survey used 5826.000000 deg^2
#Value of alpha: 0.050024
#Normalization using data file
#Normalization using density
#Normalization 4.338858
#Shot noise factor 1.000000
#Shot noise value 3660.580510
#Type of Computation: FFT
#Number of grid cells: 512
#Type of Mass Assigment: TSC
#Type of Yamamoto: GridCenter
#Number of Interlacing steps: 2
#Grid Correction: yes
#Value of Om=0.310000
#Quadrupole as L2
#Octopole as L3
#Hexadecapole as L2L2
#k-centerbin	 k-eff	 Monopole-Pshotnoise	 Dipole	 Quadrupole	 Octopole	 Hexadecapole	 number of modes	 Pshotnoise
0.005000 0.007385 53196.799059 -6645.545317 179.788957 -14498.801304 -51534.242310 250 3660.580510
0.015000 0.016012 54883.981393 -2630.222092 2638.022663 239.721014 -35463.427591 1852 3660.580510
0.025000 0.025646 46856.626601 2412.309411 -4756.040472 -2113.989820 -13196.927377 5020 3660.580510
0.035000 0.035469 38155.370901 466.637255 -5413.084232 -1318.088950 1447.606201 9756 3660.580510
0.045000 0.045368 30635.851533 994.879803 658.379283 520.409459 -2933.194043 16108 3660.580510
0.055000 0.055314 25731.775872 802.144327 -364.153075 175.381342 4387.686129 24064 3660.580510
0.065000 0.065258 21891.853941 43.398491 163.184302 310.255155 6858.090306 33396 3660.580510
0.075000 0.075209 20141.866422 468.291292 -738.449908 -561.409737 -2831.452666 44596 3660.580510
0.085000 0.085175 16234.802845 453.032365 342.306753 131.039030 -1259.123299 57124 3660.580510
0.095000 0.095157 13044.755820 258.376211 -569.806402 176.597440 37.433224 71620 3660.580510
0.105000 0.105162 10830.470159 184.033126 -248.029114 -18.500686 288.419450 87552 3660.580510
0.115000 0.115148 10132.222498 141.317585 -1198.462933 -74.788145 -647.035422 104524 3660.580510
0.125000 0.125146 9158.550303 111.908059 -990.867681 -10.986821 258.071813 124228 3660.580510
0.135000 0.135146 8377.173953 126.018128 -571.932003 -130.517759 -731.696568 144204 3660.580510
0.145000 0.145132 7517.005712 118.372674 -575.889410 191.920831 348.879073 166492 3660.580510
0.155000 0.155114 6660.701465 144.833149 -816.919117 -129.473436 374.678707 189964 3660.580510
0.165000 0.165102 5850.193553 78.493322 -592.305787 23.454565 202.965144 215640 3660.580510
0.175000 0.175105 5311.303776 85.489240 -851.038856 -27.654337 97.829144 242836 3660.580510
0.185000 0.185097 4819.704472 94.989277 -502.978583 -68.341614 363.004475 270556 3660.580510
0.195000 0.195085 4422.141106 50.357988 -616.898643 104.831465 326.862704 301084 3660.580510
0.205000 0.205080 3977.066910 80.293393 -709.144559 -6.524482 340.824890 332628 3660.580510
0.215000 0.215092 3581.835232 44.752186 -694.510523 -36.252485 595.545228 367216 3660.580510
0.225000 0.225099 3382.341103 62.230983 -790.607942 -9.446494 125.810070 400444 3660.580510
0.235000 0.235081 3110.630618 39.439143 -701.246749 -0.941972 197.333986 436500 3660.580510
0.245000 0.245077 2921.718202 44.998991 -843.187321 -4.499218 183.961713 475900 3660.580510
0.255000 0.255082 2653.369762 54.819686 -653.932182 -47.436900 183.420140 514900 3660.580510
0.265000 0.265074 2550.389606 32.859762 -695.228195 45.316464 117.223241 555408 3660.580510
0.275000 0.275066 2291.986454 44.763243 -787.624896 -39.540169 353.550075 598684 3660.580510
0.285000 0.285066 2122.344700 52.820595 -876.073871 11.597050 123.109213 643228 3660.580510
0.295000 0.295058 1934.069409 33.712358 -747.820476 -64.389070 198.412030 688036 3660.580510
