#Data file /home/DATA/sbrieden/Patchy_dr12_mocks/postrecon/original/Patchy-Mocks-DR12CMASS-S-V6C-Portsmouth-mass_f0784b1850s10_0046.dat
#Random file /home/DATA/sbrieden/Patchy_dr12_mocks/postrecon/original/Patchy-Mocks-DR12CMASS-S-V6C-Portsmouth-mass_f0784b1850s10_0046.ran
#Number of data elements used: 213551
#Number of random elements used: 4284588
#Effective number of data elements weighted by wcol: 213551.000000
#Effective number of random elements weighted by wcol: 4284588.000000
#Effective number of data elements weighted by wcol*wsys: 213551.000000
#Effective number of random elements weighted by wcol*wsys: 4284588.000000
#Effective redshift value from data 0.596938
#Effective redshift value from randoms 0.596970
#Size of the Box 3700.000000 Mpc/h
#Area of the survey used 2525.000000 deg^2
#Value of alpha: 0.049867
#Normalization using data file
#Normalization using density
#Normalization 4.058544
#Shot noise factor 1.000000
#Shot noise value 4923.767653
#Type of Computation: FFT
#Number of grid cells: 512
#Type of Mass Assigment: TSC
#Type of Yamamoto: GridCenter
#Number of Interlacing steps: 2
#Grid Correction: yes
#Value of Om=0.310000
#Quadrupole as L2
#Octopole as L3
#Hexadecapole as L2L2
#k-centerbin	 k-eff	 Monopole-Pshotnoise	 Dipole	 Quadrupole	 Octopole	 Hexadecapole	 number of modes	 Pshotnoise
0.005000 0.007485 28399.737057 1020.790119 23504.121456 -578.420222 -3529.326485 846 4923.767653
0.015000 0.016072 51070.660908 -1481.616178 -718.820589 3054.596020 3900.454392 6012 4923.767653
0.025000 0.025646 43280.945167 1262.428657 581.949605 -537.509328 -7232.571499 16172 4923.767653
0.035000 0.035469 35896.420819 125.467735 -1895.553166 580.588105 5977.426432 31764 4923.767653
0.045000 0.045378 27062.443117 608.499238 -1141.820737 -396.856454 1205.614776 52164 4923.767653
0.055000 0.055280 24593.528846 290.295678 -1604.008143 -235.888580 -1133.110502 77396 4923.767653
0.065000 0.065232 20889.946798 243.706073 -4462.318395 229.825096 3128.596954 108936 4923.767653
0.075000 0.075229 17289.990591 133.106305 -4507.323971 53.745141 -273.973070 144980 4923.767653
0.085000 0.085193 14144.152919 330.595155 -3180.202919 -310.130428 966.290967 184854 4923.767653
0.095000 0.095166 11764.410176 126.980002 -1565.318914 -131.097427 -135.584861 232260 4923.767653
0.105000 0.105155 10295.641084 119.268313 -800.706741 -55.265728 -651.526547 282884 4923.767653
0.115000 0.115131 9306.054744 68.278931 -1649.330235 30.737584 -241.498673 339084 4923.767653
0.125000 0.125124 8496.279343 99.735073 -1149.612690 -16.523270 269.202563 401864 4923.767653
0.135000 0.135125 7567.440948 109.377014 -754.302996 -92.965303 179.181427 468084 4923.767653
0.145000 0.145120 6652.995031 91.201769 -781.124575 -26.647440 -283.968956 539940 4923.767653
0.155000 0.155118 5795.735880 70.143768 -305.363271 30.326936 30.786815 617324 4923.767653
0.165000 0.165105 5084.849265 69.459707 -809.544166 -2.422054 -85.129768 697452 4923.767653
0.175000 0.175088 4911.873180 28.291361 -1062.099198 33.741098 17.746393 785846 4923.767653
0.185000 0.185089 4519.762680 63.186301 -967.154388 -48.795573 66.417017 879528 4923.767653
0.195000 0.195093 4267.627253 60.710172 -874.380954 -10.450329 178.208385 976596 4923.767653
0.205000 0.205084 3836.352271 51.324716 -704.970792 -10.070679 297.948530 1077212 4923.767653
0.215000 0.215076 3596.043565 53.219333 -787.603391 10.243524 84.203223 1186908 4923.767653
0.225000 0.225076 3177.281520 69.816887 -741.069845 -44.917334 454.944335 1299452 4923.767653
0.235000 0.235073 2946.368337 40.903080 -681.218360 -2.995874 300.801652 1417356 4923.767653
0.245000 0.245067 2713.595537 44.771105 -778.308030 19.305356 123.567867 1539600 4923.767653
0.255000 0.255064 2553.142184 38.294995 -706.253986 -3.168323 239.867638 1669820 4923.767653
0.265000 0.265061 2414.457527 49.964171 -827.343321 -10.104638 66.948799 1801086 4923.767653
0.275000 0.275060 2227.907355 48.654843 -721.825626 -32.769517 84.104348 1942244 4923.767653
0.285000 0.285062 2066.918106 48.671965 -631.334497 -2.164365 234.590228 2084796 4923.767653
0.295000 0.295057 1954.290522 38.505579 -829.768678 32.402985 47.995518 2231868 4923.767653
