#Data file /home/DATA/sbrieden/Patchy_dr12_mocks/postrecon/original/Patchy-Mocks-DR12CMASS-N-V6C-Portsmouth-mass_f0784b1850s10_0079.dat
#Random file /home/DATA/sbrieden/Patchy_dr12_mocks/postrecon/original/Patchy-Mocks-DR12CMASS-N-V6C-Portsmouth-mass_f0784b1850s10_0079.ran
#Number of data elements used: 584799
#Number of random elements used: 11777018
#Effective number of data elements weighted by wcol: 584799.000000
#Effective number of random elements weighted by wcol: 11777018.000000
#Effective number of data elements weighted by wcol*wsys: 584799.000000
#Effective number of random elements weighted by wcol*wsys: 11777018.000000
#Effective redshift value from data 0.597668
#Effective redshift value from randoms 0.597882
#Size of the Box 3700.000000 Mpc/h
#Area of the survey used 6851.000000 deg^2
#Value of alpha: 0.049648
#Normalization using data file
#Normalization using density
#Normalization 10.983694
#Shot noise factor 1.000000
#Shot noise value 4952.685442
#Type of Computation: FFT
#Number of grid cells: 512
#Type of Mass Assigment: TSC
#Type of Yamamoto: GridCenter
#Number of Interlacing steps: 2
#Grid Correction: yes
#Value of Om=0.310000
#Quadrupole as L2
#Octopole as L3
#Hexadecapole as L2L2
#k-centerbin	 k-eff	 Monopole-Pshotnoise	 Dipole	 Quadrupole	 Octopole	 Hexadecapole	 number of modes	 Pshotnoise
0.005000 0.007485 49063.533524 -2621.847812 -6083.241923 100.273346 11626.092573 846 4952.685442
0.015000 0.016072 49676.380901 752.287600 -4236.037421 818.807596 2868.649229 6012 4952.685442
0.025000 0.025646 44896.238350 751.395057 1796.023479 -969.102553 -652.721159 16172 4952.685442
0.035000 0.035469 34380.542730 365.644072 -4435.778933 866.713441 3154.599682 31764 4952.685442
0.045000 0.045378 27307.871457 449.577003 -4758.510477 -649.945826 -1459.804316 52164 4952.685442
0.055000 0.055280 23036.729516 206.529713 -2927.802232 29.829730 1422.670372 77396 4952.685442
0.065000 0.065232 20257.978580 249.900203 -997.617215 -346.691141 -315.841024 108936 4952.685442
0.075000 0.075229 18427.347951 156.640442 -2053.892554 115.938483 107.381395 144980 4952.685442
0.085000 0.085193 14903.537176 255.449211 -1443.937662 -29.896414 -198.407523 184854 4952.685442
0.095000 0.095166 12658.487680 179.248325 -1969.874130 -22.075991 -557.218632 232260 4952.685442
0.105000 0.105155 10367.752537 134.693735 -1609.476003 -71.690298 359.626225 282884 4952.685442
0.115000 0.115131 9375.554279 103.368753 -775.877274 -90.283970 -402.680805 339084 4952.685442
0.125000 0.125124 8811.032199 89.895245 -964.158594 -10.411953 394.024875 401864 4952.685442
0.135000 0.135125 8021.525954 70.324053 -481.309109 -30.798224 679.530744 468084 4952.685442
0.145000 0.145120 7130.725567 97.753515 -499.509865 26.907822 246.440165 539940 4952.685442
0.155000 0.155118 6222.544023 74.998460 -946.325924 -31.103323 -31.234434 617324 4952.685442
0.165000 0.165105 5499.758588 80.327809 -445.383238 -2.846797 -67.984681 697452 4952.685442
0.175000 0.175088 5031.852012 55.139062 -509.526589 -22.803250 -88.737647 785846 4952.685442
0.185000 0.185089 4708.438093 52.256873 -501.620242 50.655527 63.088637 879528 4952.685442
0.195000 0.195093 4310.881695 52.247505 -706.095679 -43.049708 25.673924 976596 4952.685442
0.205000 0.205084 3982.967035 74.915765 -627.852100 -22.462712 -85.724367 1077212 4952.685442
0.215000 0.215076 3637.928857 44.296785 -553.632747 17.461073 -122.784123 1186908 4952.685442
0.225000 0.225076 3310.073976 62.446460 -547.203439 4.059388 149.374650 1299452 4952.685442
0.235000 0.235073 3019.370364 49.601969 -638.316666 -34.365155 261.385645 1417356 4952.685442
0.245000 0.245067 2827.929718 39.768798 -588.926266 22.627608 286.519404 1539600 4952.685442
0.255000 0.255064 2625.021439 47.237714 -557.273954 -7.252923 116.105115 1669820 4952.685442
0.265000 0.265061 2438.104972 48.728466 -712.154994 9.273849 145.116002 1801086 4952.685442
0.275000 0.275060 2254.632580 44.290910 -757.068948 -11.407161 188.868215 1942244 4952.685442
0.285000 0.285062 2157.462008 49.235216 -769.483880 -4.336713 181.993972 2084796 4952.685442
0.295000 0.295057 2014.258980 41.423592 -762.342317 -13.959351 192.621913 2231868 4952.685442
