#Data file /home/DATA/sbrieden/Patchy_dr12_mocks/postrecon/original/Patchy-Mocks-DR12LOWZ-N-V5C-Portsmouth-mass_f0693b1850s10_0072.dat
#Random file /home/DATA/sbrieden/Patchy_dr12_mocks/postrecon/original/Patchy-Mocks-DR12LOWZ-N-V5C-Portsmouth-mass_f0693b1850s10_0072.ran
#Number of data elements used: 232413
#Number of random elements used: 4686132
#Effective number of data elements weighted by wcol: 232413.000000
#Effective number of random elements weighted by wcol: 4686132.000000
#Effective number of data elements weighted by wcol*wsys: 232413.000000
#Effective number of random elements weighted by wcol*wsys: 4686132.000000
#Effective redshift value from data 0.330072
#Effective redshift value from randoms 0.330103
#Size of the Box 2500.000000 Mpc/h
#Area of the survey used 5826.000000 deg^2
#Value of alpha: 0.049575
#Normalization using data file
#Normalization using density
#Normalization 4.305751
#Shot noise factor 1.000000
#Shot noise value 3650.705747
#Type of Computation: FFT
#Number of grid cells: 512
#Type of Mass Assigment: TSC
#Type of Yamamoto: GridCenter
#Number of Interlacing steps: 2
#Grid Correction: yes
#Value of Om=0.310000
#Quadrupole as L2
#Octopole as L3
#Hexadecapole as L2L2
#k-centerbin	 k-eff	 Monopole-Pshotnoise	 Dipole	 Quadrupole	 Octopole	 Hexadecapole	 number of modes	 Pshotnoise
0.005000 0.007385 29710.176352 -6438.039119 -8193.252857 9674.233440 23429.209985 250 3650.705747
0.015000 0.016012 52211.379313 965.955557 -1124.327996 -7462.241294 -24120.900912 1852 3650.705747
0.025000 0.025646 43029.154362 -729.800898 -8123.585120 -158.843192 -8217.957449 5020 3650.705747
0.035000 0.035469 39342.255936 1196.244271 -2286.371382 -287.201459 -6711.001188 9756 3650.705747
0.045000 0.045368 31039.429565 541.556004 -3872.282416 -48.198044 -383.918543 16108 3650.705747
0.055000 0.055314 25227.159525 660.548907 -4009.989630 -560.561127 3536.341247 24064 3650.705747
0.065000 0.065258 22752.981897 593.636592 -1422.182659 -1122.696593 -3615.620609 33396 3650.705747
0.075000 0.075209 19239.949669 90.506882 -1727.262486 580.401447 659.455673 44596 3650.705747
0.085000 0.085175 16681.577438 467.318780 196.965924 -120.070792 -792.972192 57124 3650.705747
0.095000 0.095157 13786.635615 356.937155 -1025.168446 240.031644 2197.590291 71620 3650.705747
0.105000 0.105162 11018.967745 279.020806 -1226.535300 -331.167305 397.177008 87552 3650.705747
0.115000 0.115148 9961.896351 84.082145 -560.138524 185.180425 752.412000 104524 3650.705747
0.125000 0.125146 9397.915102 111.949842 -1188.400212 -61.058825 1124.040598 124228 3650.705747
0.135000 0.135146 8436.925640 152.843798 -1017.983984 -96.275498 110.897186 144204 3650.705747
0.145000 0.145132 7287.222755 162.595821 -498.338560 18.893447 -27.855607 166492 3650.705747
0.155000 0.155114 6473.167887 80.999704 -829.947939 23.541905 707.470219 189964 3650.705747
0.165000 0.165102 5855.290104 109.712019 -423.818749 -108.359069 611.615842 215640 3650.705747
0.175000 0.175105 5292.537019 54.996569 -675.388727 103.312200 125.655199 242836 3650.705747
0.185000 0.185097 4848.967318 54.551894 -682.676628 -10.173818 344.507369 270556 3650.705747
0.195000 0.195085 4427.739575 99.297332 -458.119348 4.242218 710.099690 301084 3650.705747
0.205000 0.205080 4022.626516 63.006176 -710.459716 -41.601282 361.224632 332628 3650.705747
0.215000 0.215092 3641.268078 25.651662 -703.527702 61.031939 228.177748 367216 3650.705747
0.225000 0.225099 3382.960681 80.497408 -923.855925 -77.234075 211.956545 400444 3650.705747
0.235000 0.235081 3062.249795 64.602693 -613.064243 -6.279945 331.218129 436500 3650.705747
0.245000 0.245077 2911.482919 17.533265 -915.794134 27.933550 223.111617 475900 3650.705747
0.255000 0.255082 2647.104494 55.331776 -890.473759 -52.838496 152.555474 514900 3650.705747
0.265000 0.265074 2531.785231 41.244011 -667.980821 24.758906 213.564939 555408 3650.705747
0.275000 0.275066 2283.466338 51.732102 -774.363141 -34.509284 263.025324 598684 3650.705747
0.285000 0.285066 2181.821239 28.700563 -873.364789 -16.315256 164.384146 643228 3650.705747
0.295000 0.295058 1952.346434 45.962018 -661.342993 -1.937534 143.639396 688036 3650.705747
