#Data file /home/DATA/sbrieden/Patchy_dr12_mocks/postrecon/original/Patchy-Mocks-DR12CMASS-N-V6C-Portsmouth-mass_f0784b1850s10_0059.dat
#Random file /home/DATA/sbrieden/Patchy_dr12_mocks/postrecon/original/Patchy-Mocks-DR12CMASS-N-V6C-Portsmouth-mass_f0784b1850s10_0059.ran
#Number of data elements used: 585747
#Number of random elements used: 11791088
#Effective number of data elements weighted by wcol: 585747.000000
#Effective number of random elements weighted by wcol: 11791088.000000
#Effective number of data elements weighted by wcol*wsys: 585747.000000
#Effective number of random elements weighted by wcol*wsys: 11791088.000000
#Effective redshift value from data 0.597941
#Effective redshift value from randoms 0.597623
#Size of the Box 3700.000000 Mpc/h
#Area of the survey used 6851.000000 deg^2
#Value of alpha: 0.049913
#Normalization using data file
#Normalization using density
#Normalization 11.030335
#Shot noise factor 1.000000
#Shot noise value 4990.293500
#Type of Computation: FFT
#Number of grid cells: 512
#Type of Mass Assigment: TSC
#Type of Yamamoto: GridCenter
#Number of Interlacing steps: 2
#Grid Correction: yes
#Value of Om=0.310000
#Quadrupole as L2
#Octopole as L3
#Hexadecapole as L2L2
#k-centerbin	 k-eff	 Monopole-Pshotnoise	 Dipole	 Quadrupole	 Octopole	 Hexadecapole	 number of modes	 Pshotnoise
0.005000 0.007485 42905.023209 -982.723526 7891.914301 -1219.331567 -11486.210771 846 4990.293500
0.015000 0.016072 55796.566189 -662.781645 -6268.076753 -981.653733 -2855.472944 6012 4990.293500
0.025000 0.025646 45693.371746 1036.044406 2187.378244 -844.162982 -12709.501670 16172 4990.293500
0.035000 0.035469 34426.235026 624.516208 -1586.201512 507.769733 -1311.869149 31764 4990.293500
0.045000 0.045378 27189.174782 275.493841 -4219.171744 -23.463403 1004.371870 52164 4990.293500
0.055000 0.055280 23541.559272 454.150533 -1480.417709 -368.210479 634.772236 77396 4990.293500
0.065000 0.065232 20107.838137 173.525113 -2221.574712 136.394877 1044.337969 108936 4990.293500
0.075000 0.075229 17709.777235 146.094160 -2560.201975 -152.596338 1263.935843 144980 4990.293500
0.085000 0.085193 15048.136578 291.799131 -2328.619359 -84.418803 1261.507011 184854 4990.293500
0.095000 0.095166 12667.148172 132.658800 -1568.906985 -13.038014 496.740618 232260 4990.293500
0.105000 0.105155 10550.513138 124.719640 -1147.036104 -45.722392 -438.668804 282884 4990.293500
0.115000 0.115131 9644.296934 102.884969 -1294.369973 7.067088 263.519138 339084 4990.293500
0.125000 0.125124 8873.172172 64.188337 -1212.889344 9.367584 535.827203 401864 4990.293500
0.135000 0.135125 8140.059047 84.695857 -941.664801 -77.068316 -256.146278 468084 4990.293500
0.145000 0.145120 7111.269733 107.778865 -674.404947 -69.505933 73.339856 539940 4990.293500
0.155000 0.155118 6154.126063 97.338680 -193.880813 24.308651 -278.477730 617324 4990.293500
0.165000 0.165105 5534.588771 74.305010 -600.268584 9.910269 128.562554 697452 4990.293500
0.175000 0.175088 4996.846377 56.158901 -593.372883 -16.509923 238.937650 785846 4990.293500
0.185000 0.185089 4648.111818 55.732578 -494.708756 -1.138461 53.913478 879528 4990.293500
0.195000 0.195093 4391.580758 53.616914 -650.311113 -20.773115 44.170933 976596 4990.293500
0.205000 0.205084 4036.565983 46.575631 -593.429973 33.445247 131.049146 1077212 4990.293500
0.215000 0.215076 3649.658608 57.223425 -629.085355 -8.359596 51.617177 1186908 4990.293500
0.225000 0.225076 3352.670917 61.916202 -556.397099 -11.655899 135.199108 1299452 4990.293500
0.235000 0.235073 3067.832037 44.132554 -543.765180 -11.576407 261.138866 1417356 4990.293500
0.245000 0.245067 2856.413624 53.456528 -657.592309 8.538994 205.549053 1539600 4990.293500
0.255000 0.255064 2602.509589 48.104351 -674.754120 -11.422200 248.968305 1669820 4990.293500
0.265000 0.265061 2449.259189 46.760651 -703.149724 1.064849 225.102107 1801086 4990.293500
0.275000 0.275060 2324.695223 48.666389 -722.035936 -30.273986 213.368130 1942244 4990.293500
0.285000 0.285062 2093.764113 51.518192 -636.984195 11.372821 213.925908 2084796 4990.293500
0.295000 0.295057 1987.321161 42.068819 -692.100024 -3.602252 286.853032 2231868 4990.293500
