#Data file /home/DATA/sbrieden/Patchy_dr12_mocks/postrecon/original/Patchy-Mocks-DR12LOWZ-S-V5C-Portsmouth-mass_f0693b1850s10_0066.dat
#Random file /home/DATA/sbrieden/Patchy_dr12_mocks/postrecon/original/Patchy-Mocks-DR12LOWZ-S-V5C-Portsmouth-mass_f0693b1850s10_0066.ran
#Number of data elements used: 100167
#Number of random elements used: 2007726
#Effective number of data elements weighted by wcol: 100167.000000
#Effective number of random elements weighted by wcol: 2007726.000000
#Effective number of data elements weighted by wcol*wsys: 100167.000000
#Effective number of random elements weighted by wcol*wsys: 2007726.000000
#Effective redshift value from data 0.330280
#Effective redshift value from randoms 0.330196
#Size of the Box 2500.000000 Mpc/h
#Area of the survey used 2501.000000 deg^2
#Value of alpha: 0.049886
#Normalization using data file
#Normalization using density
#Normalization 1.856763
#Shot noise factor 1.000000
#Shot noise value 3659.061313
#Type of Computation: FFT
#Number of grid cells: 512
#Type of Mass Assigment: TSC
#Type of Yamamoto: GridCenter
#Number of Interlacing steps: 2
#Grid Correction: yes
#Value of Om=0.310000
#Quadrupole as L2
#Octopole as L3
#Hexadecapole as L2L2
#k-centerbin	 k-eff	 Monopole-Pshotnoise	 Dipole	 Quadrupole	 Octopole	 Hexadecapole	 number of modes	 Pshotnoise
0.005000 0.007385 37101.351262 -10360.878421 -40337.620341 -12002.051139 -256.597477 250 3659.061313
0.015000 0.016012 46443.147225 -2708.456068 -12780.085941 -7632.242915 -10585.488430 1852 3659.061313
0.025000 0.025646 53130.234904 1102.590949 -1534.862059 -820.545474 -14309.971734 5020 3659.061313
0.035000 0.035469 42492.660987 1638.648306 -1911.389501 514.386056 9223.086226 9756 3659.061313
0.045000 0.045368 31399.488527 923.559042 2458.260772 -718.435316 -942.376258 16108 3659.061313
0.055000 0.055314 25126.878149 499.963974 1944.820232 488.223334 1910.708675 24064 3659.061313
0.065000 0.065258 21586.922020 367.971976 -3358.729970 -505.219172 -492.368147 33396 3659.061313
0.075000 0.075209 17616.513301 467.568728 -1518.631992 340.323014 1541.640761 44596 3659.061313
0.085000 0.085175 16927.658871 163.528006 671.900778 437.782981 3854.781241 57124 3659.061313
0.095000 0.095157 13966.332236 379.115931 -1810.981223 -118.122907 1775.842480 71620 3659.061313
0.105000 0.105162 11312.997110 263.103686 -11.292067 -281.223264 1860.087087 87552 3659.061313
0.115000 0.115148 9601.277059 165.824328 -822.880954 -147.504955 -1091.508429 104524 3659.061313
0.125000 0.125146 9104.692929 15.891310 -477.598986 96.831800 -885.566039 124228 3659.061313
0.135000 0.135146 8614.467165 152.480606 -1326.028078 -138.269798 -1591.424601 144204 3659.061313
0.145000 0.145132 7514.345317 68.478638 -1008.164390 291.024785 -277.537452 166492 3659.061313
0.155000 0.155114 6820.049228 157.434081 -737.763308 -178.260312 631.238958 189964 3659.061313
0.165000 0.165102 5799.947727 158.657011 -731.156401 -43.283359 693.815950 215640 3659.061313
0.175000 0.175105 4940.094246 23.241142 -675.948666 5.483008 -122.305164 242836 3659.061313
0.185000 0.185097 4839.507694 72.711408 -1235.870861 20.550985 -79.898439 270556 3659.061313
0.195000 0.195085 4491.851975 72.885402 -1060.085092 -69.030482 345.406933 301084 3659.061313
0.205000 0.205080 3992.867867 77.478265 -649.383095 14.325440 268.131252 332628 3659.061313
0.215000 0.215092 3624.983990 68.538135 -836.545559 -28.328844 -78.274426 367216 3659.061313
0.225000 0.225099 3191.591468 39.054743 -481.738650 -31.185699 356.877929 400444 3659.061313
0.235000 0.235081 3103.335893 50.049911 -815.624902 8.499024 96.298911 436500 3659.061313
0.245000 0.245077 2769.793250 53.564923 -675.843393 -53.000113 121.603978 475900 3659.061313
0.255000 0.255082 2732.549910 33.259658 -681.438755 41.817673 175.475698 514900 3659.061313
0.265000 0.265074 2496.135962 58.095607 -533.302720 -52.161127 231.513292 555408 3659.061313
0.275000 0.275066 2262.978452 40.601111 -589.452128 44.353087 411.930446 598684 3659.061313
0.285000 0.285066 2067.492327 26.613477 -865.671282 21.289157 222.640513 643228 3659.061313
0.295000 0.295058 1965.967502 46.694227 -846.161890 -27.978619 240.384021 688036 3659.061313
