#Data file /home/DATA/sbrieden/Patchy_dr12_mocks/postrecon/original/Patchy-Mocks-DR12LOWZ-N-V5C-Portsmouth-mass_f0693b1850s10_0005.dat
#Random file /home/DATA/sbrieden/Patchy_dr12_mocks/postrecon/original/Patchy-Mocks-DR12LOWZ-N-V5C-Portsmouth-mass_f0693b1850s10_0005.ran
#Number of data elements used: 234772
#Number of random elements used: 4682789
#Effective number of data elements weighted by wcol: 234772.000000
#Effective number of random elements weighted by wcol: 4682789.000000
#Effective number of data elements weighted by wcol*wsys: 234772.000000
#Effective number of random elements weighted by wcol*wsys: 4682789.000000
#Effective redshift value from data 0.329974
#Effective redshift value from randoms 0.330244
#Size of the Box 2500.000000 Mpc/h
#Area of the survey used 5826.000000 deg^2
#Value of alpha: 0.050077
#Normalization using data file
#Normalization using density
#Normalization 4.349387
#Shot noise factor 1.000000
#Shot noise value 3652.355978
#Type of Computation: FFT
#Number of grid cells: 512
#Type of Mass Assigment: TSC
#Type of Yamamoto: GridCenter
#Number of Interlacing steps: 2
#Grid Correction: yes
#Value of Om=0.310000
#Quadrupole as L2
#Octopole as L3
#Hexadecapole as L2L2
#k-centerbin	 k-eff	 Monopole-Pshotnoise	 Dipole	 Quadrupole	 Octopole	 Hexadecapole	 number of modes	 Pshotnoise
0.005000 0.007385 55835.492402 -11825.353864 -44161.814365 -7342.906273 -17710.278258 250 3652.355978
0.015000 0.016012 57281.135248 -799.841411 -24764.690055 -15379.860975 -18542.384377 1852 3652.355978
0.025000 0.025646 47637.349959 1367.324133 6617.066204 -937.587818 -13770.823786 5020 3652.355978
0.035000 0.035469 37224.595138 1300.937932 -958.547347 1469.462796 -3208.769461 9756 3652.355978
0.045000 0.045368 29246.955961 964.480994 148.653417 -1166.492208 664.580919 16108 3652.355978
0.055000 0.055314 25051.640689 310.654568 -1470.800956 606.120386 -2094.361016 24064 3652.355978
0.065000 0.065258 22444.490623 240.403782 -177.124996 206.201574 -304.695266 33396 3652.355978
0.075000 0.075209 18985.562140 534.524513 -1066.270205 -836.440051 -2122.053264 44596 3652.355978
0.085000 0.085175 15660.344539 344.278134 -2122.192159 439.689902 -405.777564 57124 3652.355978
0.095000 0.095157 12822.275927 258.646667 -921.889343 -54.219090 413.650999 71620 3652.355978
0.105000 0.105162 11328.239673 219.900917 -1326.485323 -117.481420 -312.301944 87552 3652.355978
0.115000 0.115148 10092.080937 130.033782 -1008.398257 -60.521104 753.468813 104524 3652.355978
0.125000 0.125146 9329.334398 77.428146 -783.963387 43.655378 428.195178 124228 3652.355978
0.135000 0.135146 8657.729860 117.635462 -1312.724961 -27.183194 198.095454 144204 3652.355978
0.145000 0.145132 7599.590448 139.339553 -373.203312 -84.387446 191.169734 166492 3652.355978
0.155000 0.155114 6581.601103 155.262011 -675.052517 -15.070278 423.271287 189964 3652.355978
0.165000 0.165102 5857.915405 105.612530 -386.797503 -11.767932 280.240194 215640 3652.355978
0.175000 0.175105 5289.029947 77.244317 -673.170479 -5.862651 -106.993427 242836 3652.355978
0.185000 0.185097 4838.546933 49.633462 -467.709056 -43.706876 -22.741640 270556 3652.355978
0.195000 0.195085 4546.655997 59.082423 -610.781277 13.389222 -73.330303 301084 3652.355978
0.205000 0.205080 4087.017599 94.179878 -511.686715 -31.427920 106.716792 332628 3652.355978
0.215000 0.215092 3660.474492 46.012791 -841.916860 60.080523 9.391774 367216 3652.355978
0.225000 0.225099 3326.838480 70.731269 -677.436312 -46.657062 309.435851 400444 3652.355978
0.235000 0.235081 3106.805460 40.316824 -769.701187 37.107237 363.121322 436500 3652.355978
0.245000 0.245077 2872.727204 45.397786 -780.081571 -30.946283 316.029022 475900 3652.355978
0.255000 0.255082 2676.501533 50.450118 -623.946533 -58.539243 334.269504 514900 3652.355978
0.265000 0.265074 2493.045763 34.883311 -573.965258 43.954255 234.977143 555408 3652.355978
0.275000 0.275066 2322.805300 42.195057 -710.369581 -7.870534 297.914257 598684 3652.355978
0.285000 0.285066 2154.465652 34.998723 -720.315025 16.841420 260.103735 643228 3652.355978
0.295000 0.295058 1989.140566 52.099117 -774.160633 -49.244585 354.332868 688036 3652.355978
