#Data file /home/DATA/sbrieden/Patchy_dr12_mocks/postrecon/original/Patchy-Mocks-DR12LOWZ-S-V5C-Portsmouth-mass_f0693b1850s10_0059.dat
#Random file /home/DATA/sbrieden/Patchy_dr12_mocks/postrecon/original/Patchy-Mocks-DR12LOWZ-S-V5C-Portsmouth-mass_f0693b1850s10_0059.ran
#Number of data elements used: 100647
#Number of random elements used: 2007453
#Effective number of data elements weighted by wcol: 100647.000000
#Effective number of random elements weighted by wcol: 2007453.000000
#Effective number of data elements weighted by wcol*wsys: 100647.000000
#Effective number of random elements weighted by wcol*wsys: 2007453.000000
#Effective redshift value from data 0.330481
#Effective redshift value from randoms 0.330013
#Size of the Box 2500.000000 Mpc/h
#Area of the survey used 2501.000000 deg^2
#Value of alpha: 0.050175
#Normalization using data file
#Normalization using density
#Normalization 1.865995
#Shot noise factor 1.000000
#Shot noise value 3658.555213
#Type of Computation: FFT
#Number of grid cells: 512
#Type of Mass Assigment: TSC
#Type of Yamamoto: GridCenter
#Number of Interlacing steps: 2
#Grid Correction: yes
#Value of Om=0.310000
#Quadrupole as L2
#Octopole as L3
#Hexadecapole as L2L2
#k-centerbin	 k-eff	 Monopole-Pshotnoise	 Dipole	 Quadrupole	 Octopole	 Hexadecapole	 number of modes	 Pshotnoise
0.005000 0.007385 23639.616633 -1334.442156 3387.503823 -10106.469810 -21788.881673 250 3658.555213
0.015000 0.016012 39459.831987 -853.727618 10167.651392 -3594.795589 -4300.817776 1852 3658.555213
0.025000 0.025646 46127.266131 -2314.042347 3617.782335 10328.617022 13613.093744 5020 3658.555213
0.035000 0.035469 40694.809702 892.185778 -14242.660750 406.601567 12532.195897 9756 3658.555213
0.045000 0.045368 28666.512491 2273.951420 -6933.516163 -2635.867252 13181.581888 16108 3658.555213
0.055000 0.055314 25749.502580 -518.501419 -3194.865270 266.155159 7504.988966 24064 3658.555213
0.065000 0.065258 24980.344486 464.275793 104.180104 -631.114886 -3779.428507 33396 3658.555213
0.075000 0.075209 19657.802523 699.804624 -2418.330708 6.471914 842.412295 44596 3658.555213
0.085000 0.085175 15641.120361 523.261850 -2560.409938 -52.991116 467.717118 57124 3658.555213
0.095000 0.095157 12987.261423 28.312235 -32.656721 39.248290 430.944402 71620 3658.555213
0.105000 0.105162 11771.226147 267.241312 -2278.862892 108.343179 -743.722992 87552 3658.555213
0.115000 0.115148 10079.934798 155.028821 -1861.814385 -221.504855 795.334436 104524 3658.555213
0.125000 0.125146 9547.131170 50.204431 -1400.089980 17.935022 -488.662800 124228 3658.555213
0.135000 0.135146 8563.966678 197.763628 -405.399823 -374.466840 -822.606643 144204 3658.555213
0.145000 0.145132 7350.223840 113.843583 -419.821123 218.554713 349.242205 166492 3658.555213
0.155000 0.155114 6452.982699 182.458816 -548.771327 -33.194462 -32.990858 189964 3658.555213
0.165000 0.165102 5794.030582 70.438650 -445.644619 -107.349532 5.496592 215640 3658.555213
0.175000 0.175105 5365.987777 5.888358 -493.464184 98.754118 -91.593209 242836 3658.555213
0.185000 0.185097 5139.869268 78.839789 -851.962149 51.262816 322.371173 270556 3658.555213
0.195000 0.195085 4565.111844 84.132639 -878.432769 -16.304601 84.070390 301084 3658.555213
0.205000 0.205080 3993.307338 94.001148 -943.130212 -43.690098 197.224821 332628 3658.555213
0.215000 0.215092 3654.825673 68.009197 -755.797338 -57.818707 -257.266606 367216 3658.555213
0.225000 0.225099 3271.243674 44.768335 -709.587361 1.370350 -18.147354 400444 3658.555213
0.235000 0.235081 3117.821214 51.027051 -749.443845 -15.399625 256.060148 436500 3658.555213
0.245000 0.245077 2836.724486 36.102055 -818.430667 15.678931 50.866479 475900 3658.555213
0.255000 0.255082 2620.313545 37.484466 -835.811921 36.146611 156.831893 514900 3658.555213
0.265000 0.265074 2463.087720 49.391393 -1004.361484 -39.201666 181.689394 555408 3658.555213
0.275000 0.275066 2220.009547 54.128430 -688.709492 -88.346791 -32.634292 598684 3658.555213
0.285000 0.285066 2105.648614 31.481610 -779.727696 41.145582 -91.291471 643228 3658.555213
0.295000 0.295058 1975.637813 29.566613 -860.922057 21.316812 253.923220 688036 3658.555213
