#Data file /home/DATA/sbrieden/Patchy_dr12_mocks/postrecon/original/Patchy-Mocks-DR12CMASS-S-V6C-Portsmouth-mass_f0784b1850s10_0004.dat
#Random file /home/DATA/sbrieden/Patchy_dr12_mocks/postrecon/original/Patchy-Mocks-DR12CMASS-S-V6C-Portsmouth-mass_f0784b1850s10_0004.ran
#Number of data elements used: 212600
#Number of random elements used: 4281364
#Effective number of data elements weighted by wcol: 212600.000000
#Effective number of random elements weighted by wcol: 4281364.000000
#Effective number of data elements weighted by wcol*wsys: 212600.000000
#Effective number of random elements weighted by wcol*wsys: 4281364.000000
#Effective redshift value from data 0.597048
#Effective redshift value from randoms 0.597029
#Size of the Box 3700.000000 Mpc/h
#Area of the survey used 2525.000000 deg^2
#Value of alpha: 0.049733
#Normalization using data file
#Normalization using density
#Normalization 4.038901
#Shot noise factor 1.000000
#Shot noise value 4946.246197
#Type of Computation: FFT
#Number of grid cells: 512
#Type of Mass Assigment: TSC
#Type of Yamamoto: GridCenter
#Number of Interlacing steps: 2
#Grid Correction: yes
#Value of Om=0.310000
#Quadrupole as L2
#Octopole as L3
#Hexadecapole as L2L2
#k-centerbin	 k-eff	 Monopole-Pshotnoise	 Dipole	 Quadrupole	 Octopole	 Hexadecapole	 number of modes	 Pshotnoise
0.005000 0.007485 36600.677290 -5215.749779 -21259.354491 -496.613352 5173.799067 846 4946.246197
0.015000 0.016072 47740.502643 479.539795 2572.531001 13.260417 6024.514134 6012 4946.246197
0.025000 0.025646 45986.876872 355.255135 5828.420616 1195.139462 1043.492017 16172 4946.246197
0.035000 0.035469 34318.439334 980.838598 -4570.802690 705.398345 8465.857283 31764 4946.246197
0.045000 0.045378 26449.218441 217.430141 -2919.938532 144.070936 6244.865899 52164 4946.246197
0.055000 0.055280 21594.496202 320.964525 -3465.555835 -900.361374 -1237.264743 77396 4946.246197
0.065000 0.065232 19509.020394 136.644602 -1187.528001 289.348447 418.488206 108936 4946.246197
0.075000 0.075229 17094.478014 276.229860 -2158.365627 -417.012782 -2912.104280 144980 4946.246197
0.085000 0.085193 14065.863334 193.618564 -660.637290 38.846575 -2629.405124 184854 4946.246197
0.095000 0.095166 12146.173792 180.239619 -1877.204587 48.518695 274.441907 232260 4946.246197
0.105000 0.105155 10094.020058 134.864057 -1426.994871 -29.135696 748.544106 282884 4946.246197
0.115000 0.115131 8976.799839 86.366156 -1567.253752 -146.075103 584.959890 339084 4946.246197
0.125000 0.125124 8676.149110 4.031071 -1042.747410 95.504886 -745.266689 401864 4946.246197
0.135000 0.135125 8039.563837 123.333621 -1539.143243 -82.317427 -19.651679 468084 4946.246197
0.145000 0.145120 6914.474295 71.930139 -1148.665138 7.737376 -386.121623 539940 4946.246197
0.155000 0.155118 6202.415710 88.813204 -991.987962 30.240961 23.386161 617324 4946.246197
0.165000 0.165105 5323.542528 93.053609 -847.567904 -46.068254 209.828451 697452 4946.246197
0.175000 0.175088 4971.703788 28.979662 -900.975927 8.264694 43.031698 785846 4946.246197
0.185000 0.185089 4685.596809 69.279284 -1011.474111 -36.342235 404.404531 879528 4946.246197
0.195000 0.195093 4307.689891 54.291221 -1050.397947 -31.583561 119.785072 976596 4946.246197
0.205000 0.205084 3920.167609 66.635126 -638.866442 -5.088462 163.910101 1077212 4946.246197
0.215000 0.215076 3553.124087 56.020637 -755.843011 15.470301 496.876147 1186908 4946.246197
0.225000 0.225076 3137.756477 44.743886 -612.924840 -25.619520 278.671360 1299452 4946.246197
0.235000 0.235073 2933.097435 49.713980 -640.842951 1.142783 7.208333 1417356 4946.246197
0.245000 0.245067 2784.754588 52.357176 -580.430167 -15.239486 156.770445 1539600 4946.246197
0.255000 0.255064 2634.218147 38.803764 -841.560911 21.529117 248.949314 1669820 4946.246197
0.265000 0.265061 2402.634135 57.934722 -699.427132 -44.497193 363.497840 1801086 4946.246197
0.275000 0.275060 2296.836373 41.695658 -719.859123 -9.591573 149.865466 1942244 4946.246197
0.285000 0.285062 2058.095569 59.123043 -667.835818 11.477781 248.495201 2084796 4946.246197
0.295000 0.295057 1893.720064 28.289704 -878.441875 21.655354 244.669231 2231868 4946.246197
