#Data file /home/DATA/sbrieden/Patchy_dr12_mocks/postrecon/original/Patchy-Mocks-DR12CMASS-N-V6C-Portsmouth-mass_f0784b1850s10_0062.dat
#Random file /home/DATA/sbrieden/Patchy_dr12_mocks/postrecon/original/Patchy-Mocks-DR12CMASS-N-V6C-Portsmouth-mass_f0784b1850s10_0062.ran
#Number of data elements used: 584371
#Number of random elements used: 11788818
#Effective number of data elements weighted by wcol: 584371.000000
#Effective number of random elements weighted by wcol: 11788818.000000
#Effective number of data elements weighted by wcol*wsys: 584371.000000
#Effective number of random elements weighted by wcol*wsys: 11788818.000000
#Effective redshift value from data 0.597668
#Effective redshift value from randoms 0.597790
#Size of the Box 3700.000000 Mpc/h
#Area of the survey used 6851.000000 deg^2
#Value of alpha: 0.049662
#Normalization using data file
#Normalization using density
#Normalization 10.991595
#Shot noise factor 1.000000
#Shot noise value 4962.662153
#Type of Computation: FFT
#Number of grid cells: 512
#Type of Mass Assigment: TSC
#Type of Yamamoto: GridCenter
#Number of Interlacing steps: 2
#Grid Correction: yes
#Value of Om=0.310000
#Quadrupole as L2
#Octopole as L3
#Hexadecapole as L2L2
#k-centerbin	 k-eff	 Monopole-Pshotnoise	 Dipole	 Quadrupole	 Octopole	 Hexadecapole	 number of modes	 Pshotnoise
0.005000 0.007485 64364.654279 -2213.675339 -10116.101853 -5786.065292 -18735.225924 846 4962.662153
0.015000 0.016072 48619.297207 40.629042 -12919.855707 -2014.051496 -3485.013727 6012 4962.662153
0.025000 0.025646 45003.609043 718.401016 -9014.812631 -2257.483445 -6204.415594 16172 4962.662153
0.035000 0.035469 36372.872860 665.904099 -6066.748708 -408.280742 -189.752134 31764 4962.662153
0.045000 0.045378 27675.671586 440.808408 -3918.134693 -364.383756 -619.270773 52164 4962.662153
0.055000 0.055280 22882.220863 337.250038 -1464.122639 -156.829738 341.182517 77396 4962.662153
0.065000 0.065232 20135.526678 122.863609 -1741.571040 223.940647 2815.935481 108936 4962.662153
0.075000 0.075229 17657.299060 285.522059 -1320.374294 -237.315518 152.383557 144980 4962.662153
0.085000 0.085193 14502.452681 187.657482 -1387.171800 -10.188747 -785.821958 184854 4962.662153
0.095000 0.095166 12041.510599 188.531775 -825.453452 67.370951 -35.364330 232260 4962.662153
0.105000 0.105155 10464.541525 100.651921 -962.571244 -26.500965 665.290991 282884 4962.662153
0.115000 0.115131 9571.762437 71.366968 -976.149425 -71.273709 84.203409 339084 4962.662153
0.125000 0.125124 8848.133788 61.629369 -902.823764 69.662730 75.096959 401864 4962.662153
0.135000 0.135125 8062.771503 121.614559 -1043.160899 -51.249183 79.264783 468084 4962.662153
0.145000 0.145120 6979.112610 82.316169 -526.577191 11.410262 -330.822279 539940 4962.662153
0.155000 0.155118 6094.460964 101.269091 -822.652720 -101.628270 -20.971037 617324 4962.662153
0.165000 0.165105 5567.720939 59.931409 -580.581757 47.128868 -98.541973 697452 4962.662153
0.175000 0.175088 5237.985007 52.045092 -778.779742 -32.031023 -50.544339 785846 4962.662153
0.185000 0.185089 4723.803217 68.852786 -444.791094 -4.022720 -95.442882 879528 4962.662153
0.195000 0.195093 4378.009159 45.970895 -749.803641 29.587975 240.873689 976596 4962.662153
0.205000 0.205084 4069.475509 66.481551 -584.974064 -25.847505 214.625756 1077212 4962.662153
0.215000 0.215076 3608.801155 57.627404 -591.831605 -0.870260 170.769832 1186908 4962.662153
0.225000 0.225076 3253.832566 50.078391 -516.329274 11.371141 349.491270 1299452 4962.662153
0.235000 0.235073 3019.658035 49.354818 -761.553808 -10.497691 174.773137 1417356 4962.662153
0.245000 0.245067 2808.153820 44.441161 -651.237930 -24.158282 106.383271 1539600 4962.662153
0.255000 0.255064 2666.993616 49.830156 -702.737280 23.440812 339.168006 1669820 4962.662153
0.265000 0.265061 2462.037983 44.079404 -628.505495 -11.005976 368.419986 1801086 4962.662153
0.275000 0.275060 2338.361616 48.893687 -747.590119 -18.212000 165.510667 1942244 4962.662153
0.285000 0.285062 2191.872201 48.884404 -697.432626 -14.287004 130.547374 2084796 4962.662153
0.295000 0.295057 2013.808233 46.597707 -600.399844 -0.400541 231.268039 2231868 4962.662153
