#Data file /home/DATA/sbrieden/Patchy_dr12_mocks/postrecon/original/Patchy-Mocks-DR12LOWZ-N-V5C-Portsmouth-mass_f0693b1850s10_0029.dat
#Random file /home/DATA/sbrieden/Patchy_dr12_mocks/postrecon/original/Patchy-Mocks-DR12LOWZ-N-V5C-Portsmouth-mass_f0693b1850s10_0029.ran
#Number of data elements used: 233764
#Number of random elements used: 4672269
#Effective number of data elements weighted by wcol: 233764.000000
#Effective number of random elements weighted by wcol: 4672269.000000
#Effective number of data elements weighted by wcol*wsys: 233764.000000
#Effective number of random elements weighted by wcol*wsys: 4672269.000000
#Effective redshift value from data 0.330068
#Effective redshift value from randoms 0.330000
#Size of the Box 2500.000000 Mpc/h
#Area of the survey used 5826.000000 deg^2
#Value of alpha: 0.050092
#Normalization using data file
#Normalization using density
#Normalization 4.337170
#Shot noise factor 1.000000
#Shot noise value 3660.586319
#Type of Computation: FFT
#Number of grid cells: 512
#Type of Mass Assigment: TSC
#Type of Yamamoto: GridCenter
#Number of Interlacing steps: 2
#Grid Correction: yes
#Value of Om=0.310000
#Quadrupole as L2
#Octopole as L3
#Hexadecapole as L2L2
#k-centerbin	 k-eff	 Monopole-Pshotnoise	 Dipole	 Quadrupole	 Octopole	 Hexadecapole	 number of modes	 Pshotnoise
0.005000 0.007385 35910.991979 -621.913265 10500.889516 -4039.623878 -7701.399170 250 3660.586319
0.015000 0.016012 42792.426629 -1343.367510 19694.364138 12950.842465 12100.784143 1852 3660.586319
0.025000 0.025646 45361.573564 -93.506897 -1181.706546 -339.775651 1310.058506 5020 3660.586319
0.035000 0.035469 37430.212282 1863.680976 1998.665055 1434.394112 5275.592150 9756 3660.586319
0.045000 0.045368 28423.929267 640.856796 -4538.625104 -1920.976959 -1292.967822 16108 3660.586319
0.055000 0.055314 24798.672410 229.470815 966.781920 254.223249 -2926.817778 24064 3660.586319
0.065000 0.065258 22299.261820 156.093288 -3272.182644 180.824418 193.728357 33396 3660.586319
0.075000 0.075209 20248.095772 565.207732 -2880.716457 -674.257357 -573.870432 44596 3660.586319
0.085000 0.085175 16892.690264 429.107572 -917.286668 549.654349 -566.923325 57124 3660.586319
0.095000 0.095157 12832.606317 395.953910 -1137.807679 -426.092772 1472.684019 71620 3660.586319
0.105000 0.105162 11296.367583 -7.907678 -791.397112 231.171176 -374.561959 87552 3660.586319
0.115000 0.115148 10407.990671 150.862809 -1386.492065 -51.389658 -86.988672 104524 3660.586319
0.125000 0.125146 9522.167463 190.606855 -837.513250 -170.975360 -859.135934 124228 3660.586319
0.135000 0.135146 8365.635064 138.186347 -970.872770 -148.596022 -220.876959 144204 3660.586319
0.145000 0.145132 7520.058219 154.244869 -300.099748 30.221005 -144.694919 166492 3660.586319
0.155000 0.155114 6419.339958 90.072380 -740.206710 49.249711 140.114325 189964 3660.586319
0.165000 0.165102 5941.964118 89.608262 -765.771273 -31.955528 12.817169 215640 3660.586319
0.175000 0.175105 5326.989172 76.271457 -626.413547 -16.576506 68.812561 242836 3660.586319
0.185000 0.185097 4921.146808 66.736167 -803.309769 56.901862 213.954634 270556 3660.586319
0.195000 0.195085 4364.532847 96.711398 -543.948653 -57.690087 444.430326 301084 3660.586319
0.205000 0.205080 3999.673223 67.830624 -533.618898 -19.820945 144.094275 332628 3660.586319
0.215000 0.215092 3609.609090 52.605913 -759.560698 49.564152 157.678204 367216 3660.586319
0.225000 0.225099 3284.376132 44.194629 -853.072559 17.618361 419.766709 400444 3660.586319
0.235000 0.235081 3031.023709 51.571831 -913.469130 -61.337314 -72.441923 436500 3660.586319
0.245000 0.245077 2872.445625 38.963677 -624.450632 -3.105603 99.587262 475900 3660.586319
0.255000 0.255082 2617.237203 52.470222 -666.954295 20.721856 332.100213 514900 3660.586319
0.265000 0.265074 2424.249878 33.840359 -801.801178 -41.608967 339.730792 555408 3660.586319
0.275000 0.275066 2317.490781 39.557479 -757.091586 -35.738140 -54.315316 598684 3660.586319
0.285000 0.285066 2173.963091 50.885152 -683.118736 -2.712865 215.435306 643228 3660.586319
0.295000 0.295058 1977.964995 32.979492 -855.334001 27.882552 41.507577 688036 3660.586319
