#Data file /home/DATA/sbrieden/Patchy_dr12_mocks/postrecon/original/Patchy-Mocks-DR12LOWZ-N-V5C-Portsmouth-mass_f0693b1850s10_0027.dat
#Random file /home/DATA/sbrieden/Patchy_dr12_mocks/postrecon/original/Patchy-Mocks-DR12LOWZ-N-V5C-Portsmouth-mass_f0693b1850s10_0027.ran
#Number of data elements used: 236910
#Number of random elements used: 4682073
#Effective number of data elements weighted by wcol: 236910.000000
#Effective number of random elements weighted by wcol: 4682073.000000
#Effective number of data elements weighted by wcol*wsys: 236910.000000
#Effective number of random elements weighted by wcol*wsys: 4682073.000000
#Effective redshift value from data 0.329942
#Effective redshift value from randoms 0.330221
#Size of the Box 2500.000000 Mpc/h
#Area of the survey used 5826.000000 deg^2
#Value of alpha: 0.050602
#Normalization using data file
#Normalization using density
#Normalization 4.391361
#Shot noise factor 1.000000
#Shot noise value 3657.578233
#Type of Computation: FFT
#Number of grid cells: 512
#Type of Mass Assigment: TSC
#Type of Yamamoto: GridCenter
#Number of Interlacing steps: 2
#Grid Correction: yes
#Value of Om=0.310000
#Quadrupole as L2
#Octopole as L3
#Hexadecapole as L2L2
#k-centerbin	 k-eff	 Monopole-Pshotnoise	 Dipole	 Quadrupole	 Octopole	 Hexadecapole	 number of modes	 Pshotnoise
0.005000 0.007385 45904.534314 -1391.728803 16277.877380 18312.883780 9449.037821 250 3657.578233
0.015000 0.016012 49738.807328 -992.653321 -3007.970540 67.025574 -2826.253136 1852 3657.578233
0.025000 0.025646 49857.317636 227.318861 -1132.857183 5394.077365 17495.050848 5020 3657.578233
0.035000 0.035469 41279.854096 1591.314350 -4690.701457 -2234.989108 9374.983388 9756 3657.578233
0.045000 0.045368 32281.084110 870.464981 -1844.528793 211.233611 1982.754301 16108 3657.578233
0.055000 0.055314 24946.738473 437.913722 -1167.100436 73.909426 4038.060621 24064 3657.578233
0.065000 0.065258 22924.424315 500.530703 -3116.604586 -169.255649 -1468.655269 33396 3657.578233
0.075000 0.075209 19222.534699 105.188844 -1375.116185 -380.613102 -583.337139 44596 3657.578233
0.085000 0.085175 17963.337338 534.197499 -1413.025599 317.806372 1239.575490 57124 3657.578233
0.095000 0.095157 13769.829754 487.277275 -807.830565 -273.713485 -892.699053 71620 3657.578233
0.105000 0.105162 11330.647318 140.545683 -845.888364 -125.545514 -650.100959 87552 3657.578233
0.115000 0.115148 10361.239365 103.529084 -333.653488 95.730328 511.229859 104524 3657.578233
0.125000 0.125146 9146.370541 189.894540 -588.353673 -63.629238 460.414912 124228 3657.578233
0.135000 0.135146 8344.529257 75.025362 -739.506344 187.477525 250.831733 144204 3657.578233
0.145000 0.145132 7435.274710 136.215093 -476.791219 -199.134212 907.518348 166492 3657.578233
0.155000 0.155114 6653.874121 133.264256 -586.872379 17.678081 52.886410 189964 3657.578233
0.165000 0.165102 5729.175484 67.810821 -581.334660 -29.962070 -394.646846 215640 3657.578233
0.175000 0.175105 5207.721455 117.740004 -706.333619 -10.551613 44.024252 242836 3657.578233
0.185000 0.185097 4751.229288 76.066888 -674.802770 -1.222130 179.962856 270556 3657.578233
0.195000 0.195085 4424.244818 41.296663 -539.542829 1.598048 338.759983 301084 3657.578233
0.205000 0.205080 4177.712758 55.147611 -346.849144 -52.209770 -179.214455 332628 3657.578233
0.215000 0.215092 3782.048747 53.181988 -526.596880 75.863973 249.321063 367216 3657.578233
0.225000 0.225099 3410.913025 66.445521 -732.519980 8.283090 279.538541 400444 3657.578233
0.235000 0.235081 3111.206026 60.295625 -745.745530 -40.084394 275.668865 436500 3657.578233
0.245000 0.245077 2859.581955 41.128046 -661.495523 -4.613185 158.595422 475900 3657.578233
0.255000 0.255082 2692.910470 30.456506 -760.293007 10.356989 197.724267 514900 3657.578233
0.265000 0.265074 2506.311088 49.362196 -773.934054 7.960127 156.462317 555408 3657.578233
0.275000 0.275066 2351.557318 55.210693 -810.861664 -44.022157 341.744348 598684 3657.578233
0.285000 0.285066 2097.713746 32.280147 -678.427233 1.794613 259.668515 643228 3657.578233
0.295000 0.295058 2004.103501 35.504473 -763.429806 -1.044711 55.008466 688036 3657.578233
