#Data file /home/DATA/sbrieden/Patchy_dr12_mocks/postrecon/original/Patchy-Mocks-DR12LOWZ-S-V5C-Portsmouth-mass_f0693b1850s10_0042.dat
#Random file /home/DATA/sbrieden/Patchy_dr12_mocks/postrecon/original/Patchy-Mocks-DR12LOWZ-S-V5C-Portsmouth-mass_f0693b1850s10_0042.ran
#Number of data elements used: 98771
#Number of random elements used: 2010006
#Effective number of data elements weighted by wcol: 98771.000000
#Effective number of random elements weighted by wcol: 2010006.000000
#Effective number of data elements weighted by wcol*wsys: 98771.000000
#Effective number of random elements weighted by wcol*wsys: 2010006.000000
#Effective redshift value from data 0.330346
#Effective redshift value from randoms 0.330170
#Size of the Box 2500.000000 Mpc/h
#Area of the survey used 2501.000000 deg^2
#Value of alpha: 0.049213
#Normalization using data file
#Normalization using density
#Normalization 1.832229
#Shot noise factor 1.000000
#Shot noise value 3662.428988
#Type of Computation: FFT
#Number of grid cells: 512
#Type of Mass Assigment: TSC
#Type of Yamamoto: GridCenter
#Number of Interlacing steps: 2
#Grid Correction: yes
#Value of Om=0.310000
#Quadrupole as L2
#Octopole as L3
#Hexadecapole as L2L2
#k-centerbin	 k-eff	 Monopole-Pshotnoise	 Dipole	 Quadrupole	 Octopole	 Hexadecapole	 number of modes	 Pshotnoise
0.005000 0.007385 49600.885961 -3329.623006 25701.606624 -31394.345873 -58709.461031 250 3662.428988
0.015000 0.016012 61052.414161 -597.518509 16742.531665 11827.400375 10026.675836 1852 3662.428988
0.025000 0.025646 49634.029501 3140.921424 -8879.323721 -1113.020267 12517.557979 5020 3662.428988
0.035000 0.035469 34428.518620 1207.566463 -2128.947571 -1692.623735 -11491.765082 9756 3662.428988
0.045000 0.045368 29635.113486 -205.112668 -6354.441009 699.324380 -1086.501868 16108 3662.428988
0.055000 0.055314 24845.045076 982.876249 -1486.190372 73.776541 2863.855087 24064 3662.428988
0.065000 0.065258 21641.933771 -102.620363 -3218.736995 333.362048 1637.253746 33396 3662.428988
0.075000 0.075209 19705.216504 541.517102 -598.275845 -982.453126 249.431335 44596 3662.428988
0.085000 0.085175 16735.893089 337.844543 -417.752213 472.898194 33.477156 57124 3662.428988
0.095000 0.095157 13396.284433 339.808961 -1232.023153 190.127991 -52.617388 71620 3662.428988
0.105000 0.105162 10618.668118 319.159231 -858.921950 -602.909780 1108.842785 87552 3662.428988
0.115000 0.115148 9810.095226 45.480126 -1524.953419 305.363165 227.322866 104524 3662.428988
0.125000 0.125146 8998.548929 116.050696 -1286.688694 -43.691401 954.362860 124228 3662.428988
0.135000 0.135146 8020.742773 58.650572 -1350.229147 -102.108700 -819.499509 144204 3662.428988
0.145000 0.145132 7328.358719 166.008809 -380.803082 -3.954205 644.429771 166492 3662.428988
0.155000 0.155114 6229.289081 124.025337 -784.265044 -23.497664 834.703944 189964 3662.428988
0.165000 0.165102 5777.396422 100.456033 -625.937640 -135.858054 -61.652993 215640 3662.428988
0.175000 0.175105 5122.534038 91.223575 -364.512793 37.798301 -55.557532 242836 3662.428988
0.185000 0.185097 4720.844588 56.442882 -685.403375 65.545720 205.055458 270556 3662.428988
0.195000 0.195085 4383.813104 82.866827 -520.840170 -80.004173 237.459174 301084 3662.428988
0.205000 0.205080 3904.582369 47.188431 -740.872979 62.859379 -273.232761 332628 3662.428988
0.215000 0.215092 3602.719153 58.843510 -817.905685 -25.049186 153.952572 367216 3662.428988
0.225000 0.225099 3331.054063 23.321026 -916.608871 23.371270 376.964245 400444 3662.428988
0.235000 0.235081 3156.673415 60.165585 -982.729801 -65.153286 133.900405 436500 3662.428988
0.245000 0.245077 2879.506915 63.914683 -683.879831 -0.228755 143.407954 475900 3662.428988
0.255000 0.255082 2609.207509 54.552248 -581.272898 -1.552837 280.400438 514900 3662.428988
0.265000 0.265074 2469.808542 30.221273 -770.749977 -28.573724 106.415036 555408 3662.428988
0.275000 0.275066 2229.469349 45.692189 -873.998288 15.072617 47.984438 598684 3662.428988
0.285000 0.285066 2164.071538 30.922026 -931.653196 4.250241 120.884282 643228 3662.428988
0.295000 0.295058 1969.329607 36.779267 -746.480024 -50.795118 196.023285 688036 3662.428988
