#Data file /home/DATA/sbrieden/Patchy_dr12_mocks/postrecon/original/Patchy-Mocks-DR12LOWZ-N-V5C-Portsmouth-mass_f0693b1850s10_0007.dat
#Random file /home/DATA/sbrieden/Patchy_dr12_mocks/postrecon/original/Patchy-Mocks-DR12LOWZ-N-V5C-Portsmouth-mass_f0693b1850s10_0007.ran
#Number of data elements used: 232152
#Number of random elements used: 4680129
#Effective number of data elements weighted by wcol: 232152.000000
#Effective number of random elements weighted by wcol: 4680129.000000
#Effective number of data elements weighted by wcol*wsys: 232152.000000
#Effective number of random elements weighted by wcol*wsys: 4680129.000000
#Effective redshift value from data 0.330412
#Effective redshift value from randoms 0.329855
#Size of the Box 2500.000000 Mpc/h
#Area of the survey used 5826.000000 deg^2
#Value of alpha: 0.049698
#Normalization using data file
#Normalization using density
#Normalization 4.308320
#Shot noise factor 1.000000
#Shot noise value 3665.409792
#Type of Computation: FFT
#Number of grid cells: 512
#Type of Mass Assigment: TSC
#Type of Yamamoto: GridCenter
#Number of Interlacing steps: 2
#Grid Correction: yes
#Value of Om=0.310000
#Quadrupole as L2
#Octopole as L3
#Hexadecapole as L2L2
#k-centerbin	 k-eff	 Monopole-Pshotnoise	 Dipole	 Quadrupole	 Octopole	 Hexadecapole	 number of modes	 Pshotnoise
0.005000 0.007385 42048.578203 -9620.065763 -17775.859398 -800.370948 19333.749519 250 3665.409792
0.015000 0.016012 60804.528797 309.566674 -6013.887817 -794.540977 4302.019267 1852 3665.409792
0.025000 0.025646 50919.666777 1275.433501 -6791.565103 1143.673295 -7105.237860 5020 3665.409792
0.035000 0.035469 40785.262329 880.418747 -4981.935074 -401.420102 11874.045320 9756 3665.409792
0.045000 0.045368 28856.162364 1066.070634 -1842.552037 243.872306 2952.785147 16108 3665.409792
0.055000 0.055314 26058.066096 142.572844 -1885.221132 -588.572050 973.009912 24064 3665.409792
0.065000 0.065258 22500.694059 606.787676 -714.002749 160.014974 -347.086675 33396 3665.409792
0.075000 0.075209 19785.525070 460.436057 -675.132552 -279.673185 2254.039754 44596 3665.409792
0.085000 0.085175 16431.992188 337.475364 -317.595076 65.021639 1330.183118 57124 3665.409792
0.095000 0.095157 12950.894980 346.131903 -633.192524 72.246673 502.486224 71620 3665.409792
0.105000 0.105162 11266.263504 233.234306 -1127.390852 -87.437403 -301.174110 87552 3665.409792
0.115000 0.115148 9827.467971 89.146842 -738.697441 -104.625082 -579.804652 104524 3665.409792
0.125000 0.125146 9257.866089 53.666636 -1314.659975 86.955355 -523.084276 124228 3665.409792
0.135000 0.135146 8726.067455 159.415731 -66.510116 -171.158981 814.235136 144204 3665.409792
0.145000 0.145132 7732.456841 146.657070 -131.155266 -12.569745 -871.142206 166492 3665.409792
0.155000 0.155114 6451.832458 138.325320 -577.668819 86.860830 -347.397159 189964 3665.409792
0.165000 0.165102 5681.184414 112.399506 -550.147678 -78.124698 -55.926656 215640 3665.409792
0.175000 0.175105 5204.557933 65.171118 -354.526054 5.418069 165.734406 242836 3665.409792
0.185000 0.185097 4836.392068 64.335857 -400.627315 0.444027 -280.012629 270556 3665.409792
0.195000 0.195085 4437.547485 39.032205 -660.480095 113.787024 346.195295 301084 3665.409792
0.205000 0.205080 4031.652447 81.686175 -815.144386 -16.916218 714.126780 332628 3665.409792
0.215000 0.215092 3655.877819 62.617158 -738.839971 -83.329727 82.817917 367216 3665.409792
0.225000 0.225099 3351.218836 48.361197 -686.189859 44.409263 169.804509 400444 3665.409792
0.235000 0.235081 3090.396286 59.299965 -718.220720 -63.456864 243.220505 436500 3665.409792
0.245000 0.245077 2815.858054 46.335503 -519.486230 -3.698920 104.953985 475900 3665.409792
0.255000 0.255082 2667.264425 36.010344 -723.224296 51.332846 143.246245 514900 3665.409792
0.265000 0.265074 2443.256043 50.503864 -856.048279 -39.861741 167.889396 555408 3665.409792
0.275000 0.275066 2302.551890 34.056995 -806.163478 12.753120 87.707723 598684 3665.409792
0.285000 0.285066 2113.038153 45.895127 -874.655080 -1.346393 302.369809 643228 3665.409792
0.295000 0.295058 1984.827037 36.842360 -850.236795 -37.149971 225.757969 688036 3665.409792
