#Data file /home/DATA/sbrieden/Patchy_dr12_mocks/postrecon/original/Patchy-Mocks-DR12CMASS-N-V6C-Portsmouth-mass_f0784b1850s10_0044.dat
#Random file /home/DATA/sbrieden/Patchy_dr12_mocks/postrecon/original/Patchy-Mocks-DR12CMASS-N-V6C-Portsmouth-mass_f0784b1850s10_0044.ran
#Number of data elements used: 588250
#Number of random elements used: 11775942
#Effective number of data elements weighted by wcol: 588250.000000
#Effective number of random elements weighted by wcol: 11775942.000000
#Effective number of data elements weighted by wcol*wsys: 588250.000000
#Effective number of random elements weighted by wcol*wsys: 11775942.000000
#Effective redshift value from data 0.597729
#Effective redshift value from randoms 0.597884
#Size of the Box 3700.000000 Mpc/h
#Area of the survey used 6851.000000 deg^2
#Value of alpha: 0.050007
#Normalization using data file
#Normalization using density
#Normalization 11.055265
#Shot noise factor 1.000000
#Shot noise value 4968.043253
#Type of Computation: FFT
#Number of grid cells: 512
#Type of Mass Assigment: TSC
#Type of Yamamoto: GridCenter
#Number of Interlacing steps: 2
#Grid Correction: yes
#Value of Om=0.310000
#Quadrupole as L2
#Octopole as L3
#Hexadecapole as L2L2
#k-centerbin	 k-eff	 Monopole-Pshotnoise	 Dipole	 Quadrupole	 Octopole	 Hexadecapole	 number of modes	 Pshotnoise
0.005000 0.007485 35279.332821 -2751.519182 -10467.616865 -6241.090696 -10202.956423 846 4968.043253
0.015000 0.016072 46459.311612 -109.721946 -308.170800 -890.301513 -10803.698699 6012 4968.043253
0.025000 0.025646 44465.302563 475.030787 -13131.769607 -1364.342916 -17.468959 16172 4968.043253
0.035000 0.035469 34240.691603 618.367219 -4289.533627 -559.997418 -5040.285902 31764 4968.043253
0.045000 0.045378 26858.381793 570.782751 -352.344413 -539.158386 -2078.162708 52164 4968.043253
0.055000 0.055280 23424.399772 64.224150 -2879.934373 427.993118 -672.126770 77396 4968.043253
0.065000 0.065232 19394.848616 193.892968 -2912.397757 -88.633079 162.041391 108936 4968.043253
0.075000 0.075229 17367.972594 245.088913 -1716.639900 -240.735627 193.827707 144980 4968.043253
0.085000 0.085193 14848.218208 244.122364 -881.224798 -62.001803 799.202603 184854 4968.043253
0.095000 0.095166 12422.866934 137.092408 -1173.996057 112.498148 -215.161218 232260 4968.043253
0.105000 0.105155 10679.986690 104.231461 -1293.745132 -20.035146 556.016745 282884 4968.043253
0.115000 0.115131 9588.230913 113.615289 -1131.716645 -80.244032 25.910984 339084 4968.043253
0.125000 0.125124 8814.253174 48.869455 -611.114694 22.094724 100.347694 401864 4968.043253
0.135000 0.135125 8116.256028 128.948405 -810.426961 -98.810801 -297.044393 468084 4968.043253
0.145000 0.145120 7034.400555 95.234991 -331.135352 20.204405 -95.870945 539940 4968.043253
0.155000 0.155118 6221.221070 67.732622 -604.971617 69.551614 454.781197 617324 4968.043253
0.165000 0.165105 5517.701883 80.833578 -676.929212 -68.243146 -40.986889 697452 4968.043253
0.175000 0.175088 5041.819557 57.070710 -437.310358 -19.390727 163.168260 785846 4968.043253
0.185000 0.185089 4668.814238 58.770551 -408.827958 10.189514 40.520761 879528 4968.043253
0.195000 0.195093 4318.725213 49.729221 -672.785612 12.537350 235.653150 976596 4968.043253
0.205000 0.205084 4062.729388 65.704011 -626.230595 -24.105454 127.572886 1077212 4968.043253
0.215000 0.215076 3645.859954 56.857420 -479.023636 -21.214715 214.618350 1186908 4968.043253
0.225000 0.225076 3328.698801 50.189412 -554.998490 27.657991 81.246596 1299452 4968.043253
0.235000 0.235073 3059.967393 52.374588 -744.923321 -7.736455 179.353164 1417356 4968.043253
0.245000 0.245067 2854.287097 45.037978 -609.925431 -14.082869 207.269939 1539600 4968.043253
0.255000 0.255064 2646.850991 43.198076 -514.865705 -0.078478 361.017498 1669820 4968.043253
0.265000 0.265061 2560.844446 47.484055 -586.457304 -17.607802 258.456307 1801086 4968.043253
0.275000 0.275060 2318.964749 51.367295 -615.979795 11.933194 110.738209 1942244 4968.043253
0.285000 0.285062 2164.698052 47.060207 -616.214799 -4.161322 264.481890 2084796 4968.043253
0.295000 0.295057 2032.268078 49.477135 -621.301048 -18.279660 153.725105 2231868 4968.043253
