#Data file /home/DATA/sbrieden/Patchy_dr12_mocks/postrecon/original/Patchy-Mocks-DR12LOWZ-S-V5C-Portsmouth-mass_f0693b1850s10_0089.dat
#Random file /home/DATA/sbrieden/Patchy_dr12_mocks/postrecon/original/Patchy-Mocks-DR12LOWZ-S-V5C-Portsmouth-mass_f0693b1850s10_0089.ran
#Number of data elements used: 99183
#Number of random elements used: 2005502
#Effective number of data elements weighted by wcol: 99183.000000
#Effective number of random elements weighted by wcol: 2005502.000000
#Effective number of data elements weighted by wcol*wsys: 99183.000000
#Effective number of random elements weighted by wcol*wsys: 2005502.000000
#Effective redshift value from data 0.329767
#Effective redshift value from randoms 0.330136
#Size of the Box 2500.000000 Mpc/h
#Area of the survey used 2501.000000 deg^2
#Value of alpha: 0.049425
#Normalization using data file
#Normalization using density
#Normalization 1.838166
#Shot noise factor 1.000000
#Shot noise value 3649.885171
#Type of Computation: FFT
#Number of grid cells: 512
#Type of Mass Assigment: TSC
#Type of Yamamoto: GridCenter
#Number of Interlacing steps: 2
#Grid Correction: yes
#Value of Om=0.310000
#Quadrupole as L2
#Octopole as L3
#Hexadecapole as L2L2
#k-centerbin	 k-eff	 Monopole-Pshotnoise	 Dipole	 Quadrupole	 Octopole	 Hexadecapole	 number of modes	 Pshotnoise
0.005000 0.007385 104688.272903 -6455.047448 -56100.846043 -59616.868901 -96786.198027 250 3649.885171
0.015000 0.016012 63718.179408 4326.923833 -3625.056019 -18738.567411 -48413.291081 1852 3649.885171
0.025000 0.025646 56920.135719 790.725286 35778.613322 3746.743433 -14064.322330 5020 3649.885171
0.035000 0.035469 42120.192322 1941.722841 7177.808787 984.598075 -12480.200832 9756 3649.885171
0.045000 0.045368 31358.250366 250.308855 1882.336635 2147.466176 3024.728947 16108 3649.885171
0.055000 0.055314 27097.303951 1116.471517 -1659.438252 -1146.355197 -5564.982229 24064 3649.885171
0.065000 0.065258 20914.034798 134.333819 684.984628 1527.679248 1951.786955 33396 3649.885171
0.075000 0.075209 19320.584003 731.081084 -2592.742864 -979.575066 998.111086 44596 3649.885171
0.085000 0.085175 16366.852299 114.154210 967.867714 227.233485 1988.540686 57124 3649.885171
0.095000 0.095157 13400.655059 469.777833 -1050.184293 -228.620169 28.668842 71620 3649.885171
0.105000 0.105162 10648.990488 94.426896 -1555.355503 496.405266 -711.515882 87552 3649.885171
0.115000 0.115148 10176.672645 74.933054 -1559.871998 -99.579673 1116.655268 104524 3649.885171
0.125000 0.125146 9031.707887 229.621412 -758.632184 -158.585314 1404.204125 124228 3649.885171
0.135000 0.135146 8138.520578 46.558463 -861.969344 -99.577010 -592.494469 144204 3649.885171
0.145000 0.145132 7451.607714 173.327030 -819.691245 -65.285927 -529.545477 166492 3649.885171
0.155000 0.155114 6411.387528 115.340509 -1236.672578 29.065092 -595.266194 189964 3649.885171
0.165000 0.165102 5677.632375 79.486131 -847.311736 -33.635957 -465.665242 215640 3649.885171
0.175000 0.175105 5245.268025 68.323057 -966.031327 -46.081814 -463.670074 242836 3649.885171
0.185000 0.185097 4634.971680 83.714985 -928.342468 8.996843 144.901289 270556 3649.885171
0.195000 0.195085 4292.648876 62.671796 -750.344641 -74.178945 0.225908 301084 3649.885171
0.205000 0.205080 3846.154899 78.141692 -568.249126 51.085325 -144.501138 332628 3649.885171
0.215000 0.215092 3638.484174 51.309580 -837.988394 0.025476 331.093331 367216 3649.885171
0.225000 0.225099 3411.275945 36.205214 -658.965878 8.532010 307.497631 400444 3649.885171
0.235000 0.235081 2962.138178 78.160998 -739.543214 -25.483025 322.962027 436500 3649.885171
0.245000 0.245077 2774.312996 21.563646 -793.440961 -23.216972 93.189106 475900 3649.885171
0.255000 0.255082 2663.842610 35.444896 -861.538946 72.558265 339.889434 514900 3649.885171
0.265000 0.265074 2395.295064 57.221178 -1136.065672 -19.950985 585.026736 555408 3649.885171
0.275000 0.275066 2239.268308 40.863516 -846.413628 -91.563321 291.848989 598684 3649.885171
0.285000 0.285066 2047.478002 50.733668 -863.803438 26.976065 81.659246 643228 3649.885171
0.295000 0.295058 1918.008471 18.627944 -770.993148 -20.838068 256.064063 688036 3649.885171
