#Data file /home/DATA/sbrieden/Patchy_dr12_mocks/postrecon/original/Patchy-Mocks-DR12LOWZ-S-V5C-Portsmouth-mass_f0693b1850s10_0077.dat
#Random file /home/DATA/sbrieden/Patchy_dr12_mocks/postrecon/original/Patchy-Mocks-DR12LOWZ-S-V5C-Portsmouth-mass_f0693b1850s10_0077.ran
#Number of data elements used: 100682
#Number of random elements used: 2005915
#Effective number of data elements weighted by wcol: 100682.000000
#Effective number of random elements weighted by wcol: 2005915.000000
#Effective number of data elements weighted by wcol*wsys: 100682.000000
#Effective number of random elements weighted by wcol*wsys: 2005915.000000
#Effective redshift value from data 0.330038
#Effective redshift value from randoms 0.330360
#Size of the Box 2500.000000 Mpc/h
#Area of the survey used 2501.000000 deg^2
#Value of alpha: 0.050107
#Normalization using data file
#Normalization using density
#Normalization 1.863904
#Shot noise factor 1.000000
#Shot noise value 3653.514483
#Type of Computation: FFT
#Number of grid cells: 512
#Type of Mass Assigment: TSC
#Type of Yamamoto: GridCenter
#Number of Interlacing steps: 2
#Grid Correction: yes
#Value of Om=0.310000
#Quadrupole as L2
#Octopole as L3
#Hexadecapole as L2L2
#k-centerbin	 k-eff	 Monopole-Pshotnoise	 Dipole	 Quadrupole	 Octopole	 Hexadecapole	 number of modes	 Pshotnoise
0.005000 0.007385 44061.369962 -2112.349340 -939.847429 5229.348113 -8249.921659 250 3653.514483
0.015000 0.016012 56498.425317 -910.283296 -10097.435409 -1267.954977 8457.238262 1852 3653.514483
0.025000 0.025646 48352.594898 2877.320378 7251.730735 -721.054952 -6398.437520 5020 3653.514483
0.035000 0.035469 36078.102834 417.069735 3256.302613 461.952085 -9637.967772 9756 3653.514483
0.045000 0.045368 30478.485219 417.148024 2248.602841 706.852923 -6315.542144 16108 3653.514483
0.055000 0.055314 26702.888478 453.134372 455.689995 21.208592 -3815.853543 24064 3653.514483
0.065000 0.065258 22742.049544 578.512360 -3991.110244 452.202118 -714.194268 33396 3653.514483
0.075000 0.075209 18596.691263 431.913158 -2641.576965 -978.182743 876.528580 44596 3653.514483
0.085000 0.085175 15513.487193 370.743270 -1395.736167 -135.268992 -707.202662 57124 3653.514483
0.095000 0.095157 12546.347111 340.466806 -514.736369 -138.864251 -1308.393185 71620 3653.514483
0.105000 0.105162 11179.770267 210.890617 556.346674 49.473102 256.517789 87552 3653.514483
0.115000 0.115148 10351.110142 79.650429 930.866341 -7.867741 421.645868 104524 3653.514483
0.125000 0.125146 9110.953270 169.095752 -603.486496 135.666326 -506.608684 124228 3653.514483
0.135000 0.135146 8093.115208 78.877636 -1445.953044 118.180423 1658.329523 144204 3653.514483
0.145000 0.145132 7469.224575 87.292617 -370.051692 -32.889904 46.238029 166492 3653.514483
0.155000 0.155114 6496.695985 153.713621 -520.562043 -104.003192 222.432847 189964 3653.514483
0.165000 0.165102 5794.028952 96.130469 -623.509837 39.894034 196.066405 215640 3653.514483
0.175000 0.175105 5137.688257 71.751480 -985.088251 50.729948 45.878690 242836 3653.514483
0.185000 0.185097 4822.907523 97.840538 -847.595602 -170.079061 198.195966 270556 3653.514483
0.195000 0.195085 4242.432313 43.687413 -490.998681 63.837820 21.781194 301084 3653.514483
0.205000 0.205080 4299.872036 20.535818 -879.210561 19.510024 194.808081 332628 3653.514483
0.215000 0.215092 3870.642089 83.461348 -659.278479 -63.173055 84.481756 367216 3653.514483
0.225000 0.225099 3353.829226 68.156188 -730.427650 55.215339 225.886016 400444 3653.514483
0.235000 0.235081 3130.424581 56.856989 -905.864256 -12.664866 258.394165 436500 3653.514483
0.245000 0.245077 2834.291490 38.452413 -759.753718 -6.624552 512.085601 475900 3653.514483
0.255000 0.255082 2584.090175 63.234939 -873.470198 -5.643627 463.270868 514900 3653.514483
0.265000 0.265074 2471.365716 17.010125 -841.504385 -30.045603 219.146530 555408 3653.514483
0.275000 0.275066 2294.998389 46.868970 -834.225070 -18.370451 310.923728 598684 3653.514483
0.285000 0.285066 2035.077405 46.585612 -668.593836 -30.340779 -9.565354 643228 3653.514483
0.295000 0.295058 1895.609033 42.706340 -821.276639 0.401305 -60.214111 688036 3653.514483
