#Data file /home/DATA/sbrieden/Patchy_dr12_mocks/postrecon/original/Patchy-Mocks-DR12LOWZ-S-V5C-Portsmouth-mass_f0693b1850s10_0098.dat
#Random file /home/DATA/sbrieden/Patchy_dr12_mocks/postrecon/original/Patchy-Mocks-DR12LOWZ-S-V5C-Portsmouth-mass_f0693b1850s10_0098.ran
#Number of data elements used: 100882
#Number of random elements used: 2002158
#Effective number of data elements weighted by wcol: 100882.000000
#Effective number of random elements weighted by wcol: 2002158.000000
#Effective number of data elements weighted by wcol*wsys: 100882.000000
#Effective number of random elements weighted by wcol*wsys: 2002158.000000
#Effective redshift value from data 0.329597
#Effective redshift value from randoms 0.330240
#Size of the Box 2500.000000 Mpc/h
#Area of the survey used 2501.000000 deg^2
#Value of alpha: 0.050406
#Normalization using data file
#Normalization using density
#Normalization 1.870929
#Shot noise factor 1.000000
#Shot noise value 3654.505356
#Type of Computation: FFT
#Number of grid cells: 512
#Type of Mass Assigment: TSC
#Type of Yamamoto: GridCenter
#Number of Interlacing steps: 2
#Grid Correction: yes
#Value of Om=0.310000
#Quadrupole as L2
#Octopole as L3
#Hexadecapole as L2L2
#k-centerbin	 k-eff	 Monopole-Pshotnoise	 Dipole	 Quadrupole	 Octopole	 Hexadecapole	 number of modes	 Pshotnoise
0.005000 0.007385 50200.051929 -356.853013 -22945.847185 -11161.843860 -22925.142403 250 3654.505356
0.015000 0.016012 46386.388917 -1079.272558 -21865.096769 554.862773 19706.948065 1852 3654.505356
0.025000 0.025646 39619.791858 876.371939 -8382.207136 -4066.671880 1797.258856 5020 3654.505356
0.035000 0.035469 36289.419658 337.918607 -8750.232784 3308.045568 9800.635431 9756 3654.505356
0.045000 0.045368 29868.550387 1417.035792 -5198.112822 -1754.704511 5036.717179 16108 3654.505356
0.055000 0.055314 23564.849785 -260.435321 -2337.929201 61.971989 4764.462780 24064 3654.505356
0.065000 0.065258 22644.949820 476.353753 -2273.740658 774.443982 3418.543839 33396 3654.505356
0.075000 0.075209 19010.958782 420.108195 -3616.635633 -836.121332 2843.947520 44596 3654.505356
0.085000 0.085175 16369.643317 410.465037 -1380.794565 141.165114 2914.017915 57124 3654.505356
0.095000 0.095157 13269.667363 404.637640 -864.653965 -258.208482 186.291938 71620 3654.505356
0.105000 0.105162 10901.928573 146.216603 -1998.050954 -0.036989 671.489627 87552 3654.505356
0.115000 0.115148 10478.072396 60.834858 -504.568729 -400.195876 95.255472 104524 3654.505356
0.125000 0.125146 9987.980028 137.965093 -368.372806 214.124124 1259.505174 124228 3654.505356
0.135000 0.135146 8468.708994 189.809208 -956.825394 9.151848 -122.746836 144204 3654.505356
0.145000 0.145132 7351.272092 125.817372 -1219.521481 -54.247922 -702.087849 166492 3654.505356
0.155000 0.155114 6365.414054 94.647344 -806.303045 88.302875 393.411613 189964 3654.505356
0.165000 0.165102 5712.898753 142.340492 -456.569285 -179.223527 589.280375 215640 3654.505356
0.175000 0.175105 5096.936394 31.991617 -529.631765 184.218942 275.165569 242836 3654.505356
0.185000 0.185097 4742.680550 65.609906 -690.148035 -213.889640 -342.855350 270556 3654.505356
0.195000 0.195085 4434.642881 76.592660 -284.947795 69.972839 -144.183325 301084 3654.505356
0.205000 0.205080 4099.515721 53.818184 -593.467943 -0.571959 452.577270 332628 3654.505356
0.215000 0.215092 3690.709267 73.534405 -775.838862 -38.163210 -83.043044 367216 3654.505356
0.225000 0.225099 3413.029584 25.389806 -535.556769 75.622106 79.983880 400444 3654.505356
0.235000 0.235081 3126.438221 61.152700 -988.155573 -10.082538 112.938908 436500 3654.505356
0.245000 0.245077 2854.111680 41.805866 -998.459747 -9.737875 431.295880 475900 3654.505356
0.255000 0.255082 2688.962718 50.587900 -809.292325 -10.316645 283.599635 514900 3654.505356
0.265000 0.265074 2425.317729 49.702795 -1068.142394 -23.806558 450.312773 555408 3654.505356
0.275000 0.275066 2283.408270 30.128854 -746.830560 -25.395795 206.359182 598684 3654.505356
0.285000 0.285066 2226.999899 46.217768 -633.993738 15.473085 336.053013 643228 3654.505356
0.295000 0.295058 2013.405502 33.379319 -928.861398 -25.065575 338.588365 688036 3654.505356
