#Data file /home/DATA/sbrieden/Patchy_dr12_mocks/postrecon/original/Patchy-Mocks-DR12LOWZ-N-V5C-Portsmouth-mass_f0693b1850s10_0052.dat
#Random file /home/DATA/sbrieden/Patchy_dr12_mocks/postrecon/original/Patchy-Mocks-DR12LOWZ-N-V5C-Portsmouth-mass_f0693b1850s10_0052.ran
#Number of data elements used: 234397
#Number of random elements used: 4678346
#Effective number of data elements weighted by wcol: 234397.000000
#Effective number of random elements weighted by wcol: 4678346.000000
#Effective number of data elements weighted by wcol*wsys: 234397.000000
#Effective number of random elements weighted by wcol*wsys: 4678346.000000
#Effective redshift value from data 0.329906
#Effective redshift value from randoms 0.330100
#Size of the Box 2500.000000 Mpc/h
#Area of the survey used 5826.000000 deg^2
#Value of alpha: 0.050048
#Normalization using data file
#Normalization using density
#Normalization 4.341213
#Shot noise factor 1.000000
#Shot noise value 3650.895311
#Type of Computation: FFT
#Number of grid cells: 512
#Type of Mass Assigment: TSC
#Type of Yamamoto: GridCenter
#Number of Interlacing steps: 2
#Grid Correction: yes
#Value of Om=0.310000
#Quadrupole as L2
#Octopole as L3
#Hexadecapole as L2L2
#k-centerbin	 k-eff	 Monopole-Pshotnoise	 Dipole	 Quadrupole	 Octopole	 Hexadecapole	 number of modes	 Pshotnoise
0.005000 0.007385 52994.589952 -4116.582850 -26155.355237 -22562.211097 -8976.906480 250 3650.895311
0.015000 0.016012 63894.230574 121.691626 -10932.315372 -5750.953301 -1939.267017 1852 3650.895311
0.025000 0.025646 52772.179893 2508.618135 -14963.793175 -132.424376 -3853.992630 5020 3650.895311
0.035000 0.035469 34506.672300 1252.456723 -3115.890747 -1701.467037 3525.263804 9756 3650.895311
0.045000 0.045368 29014.630355 94.839352 -6685.874275 551.784627 24.221917 16108 3650.895311
0.055000 0.055314 26770.258020 227.706137 -3485.432276 -1067.118239 -2844.301389 24064 3650.895311
0.065000 0.065258 22773.141200 448.090640 -3281.445936 -406.930890 -765.424607 33396 3650.895311
0.075000 0.075209 20048.960541 495.182590 -1261.916342 -112.922901 -691.120284 44596 3650.895311
0.085000 0.085175 15849.096376 366.333237 -763.421499 -492.944960 838.053726 57124 3650.895311
0.095000 0.095157 13723.567308 319.183205 -768.462940 195.976584 -1769.672433 71620 3650.895311
0.105000 0.105162 11718.765693 275.558644 -2052.108028 -261.268578 -1355.868122 87552 3650.895311
0.115000 0.115148 9987.798231 92.855937 -1010.096427 -28.883932 -854.584439 104524 3650.895311
0.125000 0.125146 9227.039213 145.009974 -430.649601 7.284738 -405.984638 124228 3650.895311
0.135000 0.135146 8441.494986 141.514925 -746.549162 -14.830328 -265.753414 144204 3650.895311
0.145000 0.145132 7287.312346 89.363909 -855.491942 134.825086 119.938441 166492 3650.895311
0.155000 0.155114 6556.145177 128.786230 -982.585352 -121.390836 979.257674 189964 3650.895311
0.165000 0.165102 5890.859057 91.700133 -938.808083 -77.744526 -56.203153 215640 3650.895311
0.175000 0.175105 5445.167447 76.411146 -766.628454 117.573791 229.761035 242836 3650.895311
0.185000 0.185097 4798.080948 87.074683 -965.835949 -89.722757 698.128820 270556 3650.895311
0.195000 0.195085 4460.845255 54.814142 -743.497925 7.027850 261.976919 301084 3650.895311
0.205000 0.205080 4022.540486 88.856815 -606.028646 -41.330233 336.156061 332628 3650.895311
0.215000 0.215092 3695.174304 27.491613 -867.530904 79.495278 276.911817 367216 3650.895311
0.225000 0.225099 3450.847672 73.862673 -858.382208 -104.290400 85.439269 400444 3650.895311
0.235000 0.235081 3175.801844 60.333178 -691.849157 29.179606 464.369410 436500 3650.895311
0.245000 0.245077 2825.990751 54.078840 -710.164124 -33.096446 169.154151 475900 3650.895311
0.255000 0.255082 2680.838256 14.860515 -845.416695 34.136179 97.446834 514900 3650.895311
0.265000 0.265074 2455.180073 43.022607 -851.588235 -15.010542 100.135741 555408 3650.895311
0.275000 0.275066 2293.058792 61.292753 -764.355183 -26.805976 154.247395 598684 3650.895311
0.285000 0.285066 2115.460528 34.522931 -755.986482 -38.176267 188.689614 643228 3650.895311
0.295000 0.295058 2029.360040 33.518560 -750.022474 18.874381 139.019468 688036 3650.895311
