#Data file /home/DATA/sbrieden/Patchy_dr12_mocks/postrecon/original/Patchy-Mocks-DR12CMASS-S-V6C-Portsmouth-mass_f0784b1850s10_0071.dat
#Random file /home/DATA/sbrieden/Patchy_dr12_mocks/postrecon/original/Patchy-Mocks-DR12CMASS-S-V6C-Portsmouth-mass_f0784b1850s10_0071.ran
#Number of data elements used: 216676
#Number of random elements used: 4280276
#Effective number of data elements weighted by wcol: 216676.000000
#Effective number of random elements weighted by wcol: 4280276.000000
#Effective number of data elements weighted by wcol*wsys: 216676.000000
#Effective number of random elements weighted by wcol*wsys: 4280276.000000
#Effective redshift value from data 0.596764
#Effective redshift value from randoms 0.597197
#Size of the Box 3700.000000 Mpc/h
#Area of the survey used 2525.000000 deg^2
#Value of alpha: 0.050604
#Normalization using data file
#Normalization using density
#Normalization 4.108845
#Shot noise factor 1.000000
#Shot noise value 4942.290437
#Type of Computation: FFT
#Number of grid cells: 512
#Type of Mass Assigment: TSC
#Type of Yamamoto: GridCenter
#Number of Interlacing steps: 2
#Grid Correction: yes
#Value of Om=0.310000
#Quadrupole as L2
#Octopole as L3
#Hexadecapole as L2L2
#k-centerbin	 k-eff	 Monopole-Pshotnoise	 Dipole	 Quadrupole	 Octopole	 Hexadecapole	 number of modes	 Pshotnoise
0.005000 0.007485 57274.049522 -165.126328 26167.715130 10010.696415 11633.563080 846 4942.290437
0.015000 0.016072 53485.966208 2068.933306 4831.894668 3598.478386 16522.782554 6012 4942.290437
0.025000 0.025646 35380.920751 215.041222 -5564.482738 2624.269051 16680.033504 16172 4942.290437
0.035000 0.035469 34068.642244 261.089052 -4835.565725 -760.244425 13329.623078 31764 4942.290437
0.045000 0.045378 26689.019370 468.698691 -1297.934912 91.249889 -135.945893 52164 4942.290437
0.055000 0.055280 22319.094126 137.114476 -2559.960855 40.558849 2647.197394 77396 4942.290437
0.065000 0.065232 20758.323164 203.473073 -1278.034358 -192.344758 -121.141297 108936 4942.290437
0.075000 0.075229 17425.217411 320.726857 -950.975790 -114.004556 611.132472 144980 4942.290437
0.085000 0.085193 14219.764003 171.757883 -714.973091 -2.602616 -1220.402375 184854 4942.290437
0.095000 0.095166 12344.133247 150.453754 -1198.576809 91.128538 -760.114713 232260 4942.290437
0.105000 0.105155 10757.320372 94.803596 -1307.029354 -106.755611 -645.649235 282884 4942.290437
0.115000 0.115131 9711.393777 158.602634 -426.777979 -64.974137 208.988570 339084 4942.290437
0.125000 0.125124 8869.544530 46.508598 -1123.197897 31.542712 -453.792000 401864 4942.290437
0.135000 0.135125 7609.161877 116.294992 -760.286056 -10.411753 16.673842 468084 4942.290437
0.145000 0.145120 6881.929915 56.723221 -1324.571669 17.956329 215.363146 539940 4942.290437
0.155000 0.155118 6151.747890 125.316188 -981.267854 -61.722056 521.887885 617324 4942.290437
0.165000 0.165105 5439.964103 37.569062 -819.249391 -10.452414 8.614261 697452 4942.290437
0.175000 0.175088 5121.787876 66.094174 -945.943909 -0.774829 109.834518 785846 4942.290437
0.185000 0.185089 4822.048632 39.655073 -1144.567417 37.351997 83.192570 879528 4942.290437
0.195000 0.195093 4271.712970 87.570793 -566.576516 -112.291583 130.096575 976596 4942.290437
0.205000 0.205084 3906.378986 36.200396 -379.319439 50.747863 353.945389 1077212 4942.290437
0.215000 0.215076 3640.411147 60.847606 -747.850545 -2.447002 92.529265 1186908 4942.290437
0.225000 0.225076 3258.471851 55.919843 -578.076046 -4.154308 301.389927 1299452 4942.290437
0.235000 0.235073 3041.089082 40.053314 -674.619379 -11.924597 250.722682 1417356 4942.290437
0.245000 0.245067 2786.430406 53.121163 -837.687737 26.071352 256.802755 1539600 4942.290437
0.255000 0.255064 2638.852982 38.068873 -966.272369 2.702291 353.589275 1669820 4942.290437
0.265000 0.265061 2407.189451 69.109613 -920.647232 -35.143385 462.567621 1801086 4942.290437
0.275000 0.275060 2142.042952 39.633806 -777.398825 -37.502341 208.339538 1942244 4942.290437
0.285000 0.285062 2098.914961 42.928927 -678.067650 3.859004 -30.547760 2084796 4942.290437
0.295000 0.295057 1940.899208 53.629742 -809.630664 -13.253392 215.444656 2231868 4942.290437
