#Data file /home/DATA/sbrieden/Patchy_dr12_mocks/postrecon/original/Patchy-Mocks-DR12CMASS-S-V6C-Portsmouth-mass_f0784b1850s10_0050.dat
#Random file /home/DATA/sbrieden/Patchy_dr12_mocks/postrecon/original/Patchy-Mocks-DR12CMASS-S-V6C-Portsmouth-mass_f0784b1850s10_0050.ran
#Number of data elements used: 210830
#Number of random elements used: 4289667
#Effective number of data elements weighted by wcol: 210830.000000
#Effective number of random elements weighted by wcol: 4289667.000000
#Effective number of data elements weighted by wcol*wsys: 210830.000000
#Effective number of random elements weighted by wcol*wsys: 4289667.000000
#Effective redshift value from data 0.597370
#Effective redshift value from randoms 0.596635
#Size of the Box 3700.000000 Mpc/h
#Area of the survey used 2525.000000 deg^2
#Value of alpha: 0.049474
#Normalization using data file
#Normalization using density
#Normalization 4.015201
#Shot noise factor 1.000000
#Shot noise value 4983.205980
#Type of Computation: FFT
#Number of grid cells: 512
#Type of Mass Assigment: TSC
#Type of Yamamoto: GridCenter
#Number of Interlacing steps: 2
#Grid Correction: yes
#Value of Om=0.310000
#Quadrupole as L2
#Octopole as L3
#Hexadecapole as L2L2
#k-centerbin	 k-eff	 Monopole-Pshotnoise	 Dipole	 Quadrupole	 Octopole	 Hexadecapole	 number of modes	 Pshotnoise
0.005000 0.007485 32058.939954 -3569.225232 5101.666017 -736.249621 -7359.937888 846 4983.205980
0.015000 0.016072 45071.704003 1032.629119 6419.658056 2169.308371 17228.500819 6012 4983.205980
0.025000 0.025646 43945.664068 -384.128639 614.655709 1170.103253 3728.433843 16172 4983.205980
0.035000 0.035469 35738.457547 480.517442 -8737.841458 473.628779 325.246593 31764 4983.205980
0.045000 0.045378 26024.682356 492.312736 -9617.025594 -198.870023 717.521507 52164 4983.205980
0.055000 0.055280 22707.610039 177.138947 -3262.729571 -207.674597 4506.565640 77396 4983.205980
0.065000 0.065232 19682.847882 428.304604 -760.682808 -856.740655 119.824390 108936 4983.205980
0.075000 0.075229 17406.745597 73.823732 -2770.282850 179.287117 -1160.187736 144980 4983.205980
0.085000 0.085193 14801.094220 295.700944 -2333.223179 35.746360 2158.952673 184854 4983.205980
0.095000 0.095166 11602.701488 201.581515 -1329.834027 -142.816182 159.786499 232260 4983.205980
0.105000 0.105155 9901.743058 67.694939 -1618.182534 40.164082 161.099650 282884 4983.205980
0.115000 0.115131 9103.476294 45.183156 -873.118671 129.567906 -202.960636 339084 4983.205980
0.125000 0.125124 8395.887980 102.735769 -1414.414814 -132.420275 383.743755 401864 4983.205980
0.135000 0.135125 7720.459498 99.771829 -928.005545 -42.770558 76.353746 468084 4983.205980
0.145000 0.145120 6805.094143 96.954059 -1227.263453 -34.930258 -128.726353 539940 4983.205980
0.155000 0.155118 5873.090774 88.043178 -1022.953295 -38.724798 371.250033 617324 4983.205980
0.165000 0.165105 5315.420808 54.281902 -1052.303646 -24.456079 255.953928 697452 4983.205980
0.175000 0.175088 4938.767426 55.657371 -536.840734 -5.923551 -256.679651 785846 4983.205980
0.185000 0.185089 4591.757334 57.623310 -635.731921 13.176230 187.487076 879528 4983.205980
0.195000 0.195093 4185.902586 58.956741 -565.647813 -30.706257 360.732939 976596 4983.205980
0.205000 0.205084 3863.967532 42.971546 -810.053189 53.506880 372.773119 1077212 4983.205980
0.215000 0.215076 3524.349007 57.948079 -801.320758 -55.509134 -41.960844 1186908 4983.205980
0.225000 0.225076 3264.292424 45.527556 -718.859833 31.758254 -26.407179 1299452 4983.205980
0.235000 0.235073 3024.003903 57.959374 -1000.064218 -21.140314 116.270963 1417356 4983.205980
0.245000 0.245067 2762.611015 55.670876 -787.866737 -31.445650 158.306680 1539600 4983.205980
0.255000 0.255064 2562.691903 37.349521 -703.695555 13.955033 441.755572 1669820 4983.205980
0.265000 0.265061 2447.016707 42.086370 -922.098279 21.540639 214.186552 1801086 4983.205980
0.275000 0.275060 2247.351808 46.520097 -881.799291 -14.876773 411.727826 1942244 4983.205980
0.285000 0.285062 2042.056788 61.561068 -764.453884 -53.915916 498.339995 2084796 4983.205980
0.295000 0.295057 1901.432544 42.204158 -633.044169 10.703693 355.626558 2231868 4983.205980
