#Data file /home/DATA/sbrieden/Patchy_dr12_mocks/postrecon/original/Patchy-Mocks-DR12LOWZ-S-V5C-Portsmouth-mass_f0693b1850s10_0034.dat
#Random file /home/DATA/sbrieden/Patchy_dr12_mocks/postrecon/original/Patchy-Mocks-DR12LOWZ-S-V5C-Portsmouth-mass_f0693b1850s10_0034.ran
#Number of data elements used: 101515
#Number of random elements used: 2005809
#Effective number of data elements weighted by wcol: 101515.000000
#Effective number of random elements weighted by wcol: 2005809.000000
#Effective number of data elements weighted by wcol*wsys: 101515.000000
#Effective number of random elements weighted by wcol*wsys: 2005809.000000
#Effective redshift value from data 0.330176
#Effective redshift value from randoms 0.330093
#Size of the Box 2500.000000 Mpc/h
#Area of the survey used 2501.000000 deg^2
#Value of alpha: 0.050672
#Normalization using data file
#Normalization using density
#Normalization 1.883268
#Shot noise factor 1.000000
#Shot noise value 3665.463071
#Type of Computation: FFT
#Number of grid cells: 512
#Type of Mass Assigment: TSC
#Type of Yamamoto: GridCenter
#Number of Interlacing steps: 2
#Grid Correction: yes
#Value of Om=0.310000
#Quadrupole as L2
#Octopole as L3
#Hexadecapole as L2L2
#k-centerbin	 k-eff	 Monopole-Pshotnoise	 Dipole	 Quadrupole	 Octopole	 Hexadecapole	 number of modes	 Pshotnoise
0.005000 0.007385 45883.385449 -4052.725395 -14993.457891 -12194.009524 -22311.595884 250 3665.463071
0.015000 0.016012 40043.578492 -2844.505924 -5079.298606 225.730772 -5972.676459 1852 3665.463071
0.025000 0.025646 50072.998881 1707.420126 -3174.425320 -181.212532 20570.155825 5020 3665.463071
0.035000 0.035469 33257.773118 1299.075293 10452.421643 470.891121 -7914.148351 9756 3665.463071
0.045000 0.045368 30589.935444 180.792036 -2361.781728 885.663471 -2533.789709 16108 3665.463071
0.055000 0.055314 25350.263374 728.299487 -3427.950796 -77.234468 665.754001 24064 3665.463071
0.065000 0.065258 22627.969940 507.247609 -420.500701 -954.911824 6502.182205 33396 3665.463071
0.075000 0.075209 18819.798403 390.934318 466.616225 1093.942525 -611.550436 44596 3665.463071
0.085000 0.085175 15566.810040 -22.061728 -4184.932354 1095.948684 3526.245110 57124 3665.463071
0.095000 0.095157 13532.206568 576.690607 -3288.264288 -1421.141307 875.948477 71620 3665.463071
0.105000 0.105162 12026.567330 43.997070 -1193.967724 301.677356 24.571417 87552 3665.463071
0.115000 0.115148 10325.788489 264.965156 -1441.729306 -131.318938 1240.761786 104524 3665.463071
0.125000 0.125146 9255.763006 10.256299 -755.777482 -124.226168 -429.093338 124228 3665.463071
0.135000 0.135146 8667.216251 274.067847 -950.963548 62.602774 430.545583 144204 3665.463071
0.145000 0.145132 7435.325059 60.940350 -1477.846429 -115.701045 -741.990740 166492 3665.463071
0.155000 0.155114 6706.272840 145.862678 -278.640181 -45.386969 614.045300 189964 3665.463071
0.165000 0.165102 6068.578515 72.420979 -628.776191 13.980020 -242.182309 215640 3665.463071
0.175000 0.175105 5341.744951 83.417715 -705.661918 74.054654 433.676394 242836 3665.463071
0.185000 0.185097 4950.175715 81.519405 -973.381395 -109.772986 168.191375 270556 3665.463071
0.195000 0.195085 4481.120041 94.626662 -362.591814 4.731166 205.634959 301084 3665.463071
0.205000 0.205080 4040.798048 49.088030 -519.205072 0.472203 505.719320 332628 3665.463071
0.215000 0.215092 3711.402250 62.541476 -521.434576 26.959351 136.202766 367216 3665.463071
0.225000 0.225099 3410.029399 38.951744 -545.738180 -42.396191 27.338356 400444 3665.463071
0.235000 0.235081 3257.852867 53.230886 -659.812644 3.578716 176.395100 436500 3665.463071
0.245000 0.245077 2978.592737 33.167914 -872.640445 39.319508 313.563977 475900 3665.463071
0.255000 0.255082 2631.453154 71.176968 -1055.839554 -14.773304 193.744405 514900 3665.463071
0.265000 0.265074 2496.361967 24.766150 -914.338629 -21.719968 13.166323 555408 3665.463071
0.275000 0.275066 2334.896069 51.908519 -796.270316 -6.322991 259.122443 598684 3665.463071
0.285000 0.285066 2130.795778 37.015427 -880.189402 -1.399350 96.229805 643228 3665.463071
0.295000 0.295058 1934.520852 38.532862 -842.864420 -11.257386 322.308008 688036 3665.463071
