#Data file /home/DATA/sbrieden/Patchy_dr12_mocks/postrecon/original/Patchy-Mocks-DR12LOWZ-S-V5C-Portsmouth-mass_f0693b1850s10_0085.dat
#Random file /home/DATA/sbrieden/Patchy_dr12_mocks/postrecon/original/Patchy-Mocks-DR12LOWZ-S-V5C-Portsmouth-mass_f0693b1850s10_0085.ran
#Number of data elements used: 100512
#Number of random elements used: 2005464
#Effective number of data elements weighted by wcol: 100512.000000
#Effective number of random elements weighted by wcol: 2005464.000000
#Effective number of data elements weighted by wcol*wsys: 100512.000000
#Effective number of random elements weighted by wcol*wsys: 2005464.000000
#Effective redshift value from data 0.330581
#Effective redshift value from randoms 0.329896
#Size of the Box 2500.000000 Mpc/h
#Area of the survey used 2501.000000 deg^2
#Value of alpha: 0.050250
#Normalization using data file
#Normalization using density
#Normalization 1.865860
#Shot noise factor 1.000000
#Shot noise value 3668.607901
#Type of Computation: FFT
#Number of grid cells: 512
#Type of Mass Assigment: TSC
#Type of Yamamoto: GridCenter
#Number of Interlacing steps: 2
#Grid Correction: yes
#Value of Om=0.310000
#Quadrupole as L2
#Octopole as L3
#Hexadecapole as L2L2
#k-centerbin	 k-eff	 Monopole-Pshotnoise	 Dipole	 Quadrupole	 Octopole	 Hexadecapole	 number of modes	 Pshotnoise
0.005000 0.007385 29723.207443 -8358.736911 -12136.894155 -5995.431638 6154.544589 250 3668.607901
0.015000 0.016012 71347.751836 2323.712518 -5064.831672 -4016.944333 -18611.298495 1852 3668.607901
0.025000 0.025646 49124.015528 -855.533353 -2342.319653 -3685.161433 1587.542726 5020 3668.607901
0.035000 0.035469 44055.170747 1751.830414 62.683898 65.122496 -22519.947551 9756 3668.607901
0.045000 0.045368 28824.263083 1146.120543 -3034.307168 826.936895 -552.036079 16108 3668.607901
0.055000 0.055314 26809.540456 81.745706 -3898.455811 -14.219746 9820.784193 24064 3668.607901
0.065000 0.065258 23555.277480 1084.730194 -6165.451843 -639.539609 1756.406809 33396 3668.607901
0.075000 0.075209 17963.936800 -35.679588 -351.002419 -156.265472 -5.035486 44596 3668.607901
0.085000 0.085175 16435.605818 398.590438 -3597.255068 171.433538 -421.083657 57124 3668.607901
0.095000 0.095157 13546.760417 259.247365 -1884.444177 -588.114079 -1106.641269 71620 3668.607901
0.105000 0.105162 11595.385284 186.613881 -1296.828724 342.610925 850.441743 87552 3668.607901
0.115000 0.115148 10517.990557 175.987318 -1632.928057 -280.258859 1256.345156 104524 3668.607901
0.125000 0.125146 9396.453563 98.736839 -257.670835 -3.136199 979.045712 124228 3668.607901
0.135000 0.135146 8571.361614 191.606529 -766.661988 96.676271 -524.461679 144204 3668.607901
0.145000 0.145132 7329.597601 145.014003 -1261.530664 -244.481888 -4.989424 166492 3668.607901
0.155000 0.155114 6270.900110 135.228655 -432.912780 13.167755 212.267920 189964 3668.607901
0.165000 0.165102 5819.724402 32.361391 -1352.955758 149.543987 200.663695 215640 3668.607901
0.175000 0.175105 5227.185731 69.602002 -888.796869 -142.118687 11.826087 242836 3668.607901
0.185000 0.185097 4845.396425 84.564145 -1007.511638 -19.812288 -101.095382 270556 3668.607901
0.195000 0.195085 4536.965515 77.876176 -508.742888 -25.225942 369.551527 301084 3668.607901
0.205000 0.205080 4175.284225 59.963982 -634.017959 21.358437 59.196080 332628 3668.607901
0.215000 0.215092 3580.387547 77.141747 -738.587628 22.423758 266.856838 367216 3668.607901
0.225000 0.225099 3237.051380 70.556664 -717.458795 -69.315480 377.532352 400444 3668.607901
0.235000 0.235081 3036.209270 28.024047 -566.997120 -31.656097 -193.555523 436500 3668.607901
0.245000 0.245077 2823.559113 60.863523 -772.070347 24.454455 -166.911464 475900 3668.607901
0.255000 0.255082 2498.788808 26.566832 -667.947318 26.593181 68.316125 514900 3668.607901
0.265000 0.265074 2479.653619 44.433568 -870.100668 -23.913239 72.726860 555408 3668.607901
0.275000 0.275066 2310.390477 42.281263 -781.043784 12.245897 330.720677 598684 3668.607901
0.285000 0.285066 2172.183009 38.133987 -816.599583 -27.273886 197.666103 643228 3668.607901
0.295000 0.295058 2054.123847 34.826090 -779.837605 -43.233895 325.751953 688036 3668.607901
