#Data file /home/DATA/sbrieden/Patchy_dr12_mocks/postrecon/original/Patchy-Mocks-DR12LOWZ-S-V5C-Portsmouth-mass_f0693b1850s10_0006.dat
#Random file /home/DATA/sbrieden/Patchy_dr12_mocks/postrecon/original/Patchy-Mocks-DR12LOWZ-S-V5C-Portsmouth-mass_f0693b1850s10_0006.ran
#Number of data elements used: 99977
#Number of random elements used: 2005572
#Effective number of data elements weighted by wcol: 99977.000000
#Effective number of random elements weighted by wcol: 2005572.000000
#Effective number of data elements weighted by wcol*wsys: 99977.000000
#Effective number of random elements weighted by wcol*wsys: 2005572.000000
#Effective redshift value from data 0.330269
#Effective redshift value from randoms 0.330202
#Size of the Box 2500.000000 Mpc/h
#Area of the survey used 2501.000000 deg^2
#Value of alpha: 0.049904
#Normalization using data file
#Normalization using density
#Normalization 1.854766
#Shot noise factor 1.000000
#Shot noise value 3658.848160
#Type of Computation: FFT
#Number of grid cells: 512
#Type of Mass Assigment: TSC
#Type of Yamamoto: GridCenter
#Number of Interlacing steps: 2
#Grid Correction: yes
#Value of Om=0.310000
#Quadrupole as L2
#Octopole as L3
#Hexadecapole as L2L2
#k-centerbin	 k-eff	 Monopole-Pshotnoise	 Dipole	 Quadrupole	 Octopole	 Hexadecapole	 number of modes	 Pshotnoise
0.005000 0.007385 47253.289644 -8943.589358 -13019.597245 -23253.772146 -42872.489683 250 3658.848160
0.015000 0.016012 42475.886739 2822.808123 1411.900498 -2937.879853 243.470800 1852 3658.848160
0.025000 0.025646 42261.446710 1335.701158 8530.505401 -1934.421938 -4986.740303 5020 3658.848160
0.035000 0.035469 34940.877327 838.246527 18647.524041 2846.386509 4983.530987 9756 3658.848160
0.045000 0.045368 29645.436366 541.170904 3450.346195 2478.710493 2768.029158 16108 3658.848160
0.055000 0.055314 24739.730290 406.594971 -4760.855797 836.191652 8321.550186 24064 3658.848160
0.065000 0.065258 23223.006314 -76.406955 -1611.400451 -1453.111763 -3544.709620 33396 3658.848160
0.075000 0.075209 19978.983243 617.028947 -880.711752 538.069078 2737.618282 44596 3658.848160
0.085000 0.085175 16196.218976 509.757205 -814.468120 -81.414874 2539.651843 57124 3658.848160
0.095000 0.095157 13039.420248 182.085716 -2246.760100 239.597845 905.958557 71620 3658.848160
0.105000 0.105162 11369.816481 241.817005 -1559.274377 -107.524795 548.154161 87552 3658.848160
0.115000 0.115148 9742.627499 176.311864 -1745.274520 -58.086493 748.843337 104524 3658.848160
0.125000 0.125146 8906.929801 31.763305 -1154.199788 -193.535776 560.886746 124228 3658.848160
0.135000 0.135146 8528.080889 194.877429 -1064.182452 -66.862736 959.315951 144204 3658.848160
0.145000 0.145132 7213.145735 125.868707 -774.248250 180.829036 138.997730 166492 3658.848160
0.155000 0.155114 6249.031278 105.729031 -1178.481806 -2.827001 1242.885202 189964 3658.848160
0.165000 0.165102 6026.003373 42.556217 -375.460294 -102.861623 243.471659 215640 3658.848160
0.175000 0.175105 5343.061769 108.378870 -414.309168 7.188463 644.873020 242836 3658.848160
0.185000 0.185097 4919.555845 70.379024 -888.460745 73.247102 725.969524 270556 3658.848160
0.195000 0.195085 4585.849163 77.616230 -732.700872 -111.637068 86.724132 301084 3658.848160
0.205000 0.205080 4049.243294 37.716224 -912.110095 29.156478 -3.024930 332628 3658.848160
0.215000 0.215092 3771.005393 84.101758 -730.967052 -75.763218 -70.339505 367216 3658.848160
0.225000 0.225099 3453.235343 55.746066 -736.559203 7.507176 191.488171 400444 3658.848160
0.235000 0.235081 3123.225784 42.047376 -715.368638 22.812745 366.832901 436500 3658.848160
0.245000 0.245077 2847.982779 53.662349 -811.265979 7.862793 262.218332 475900 3658.848160
0.255000 0.255082 2673.352158 47.545477 -746.523746 -42.290839 7.801355 514900 3658.848160
0.265000 0.265074 2405.148945 31.831467 -847.374885 51.281163 235.605365 555408 3658.848160
0.275000 0.275066 2307.022531 32.240030 -997.105915 0.543446 97.201902 598684 3658.848160
0.285000 0.285066 2146.196438 43.592981 -1000.444947 -46.555174 195.182921 643228 3658.848160
0.295000 0.295058 2021.278273 54.561589 -732.473888 -44.492818 24.241600 688036 3658.848160
