#Data file /home/DATA/sbrieden/Patchy_dr12_mocks/postrecon/original/Patchy-Mocks-DR12CMASS-S-V6C-Portsmouth-mass_f0784b1850s10_0007.dat
#Random file /home/DATA/sbrieden/Patchy_dr12_mocks/postrecon/original/Patchy-Mocks-DR12CMASS-S-V6C-Portsmouth-mass_f0784b1850s10_0007.ran
#Number of data elements used: 216102
#Number of random elements used: 4280012
#Effective number of data elements weighted by wcol: 216102.000000
#Effective number of random elements weighted by wcol: 4280012.000000
#Effective number of data elements weighted by wcol*wsys: 216102.000000
#Effective number of random elements weighted by wcol*wsys: 4280012.000000
#Effective redshift value from data 0.597023
#Effective redshift value from randoms 0.597048
#Size of the Box 3700.000000 Mpc/h
#Area of the survey used 2525.000000 deg^2
#Value of alpha: 0.050609
#Normalization using data file
#Normalization using density
#Normalization 4.109299
#Shot noise factor 1.000000
#Shot noise value 4941.822730
#Type of Computation: FFT
#Number of grid cells: 512
#Type of Mass Assigment: TSC
#Type of Yamamoto: GridCenter
#Number of Interlacing steps: 2
#Grid Correction: yes
#Value of Om=0.310000
#Quadrupole as L2
#Octopole as L3
#Hexadecapole as L2L2
#k-centerbin	 k-eff	 Monopole-Pshotnoise	 Dipole	 Quadrupole	 Octopole	 Hexadecapole	 number of modes	 Pshotnoise
0.005000 0.007485 42802.848286 -472.413770 -19992.853190 -10387.312586 -14421.444101 846 4941.822730
0.015000 0.016072 45927.746277 -561.242813 -11826.015620 1491.270964 19430.799380 6012 4941.822730
0.025000 0.025646 43250.075712 271.670651 4513.422564 549.798521 12867.909480 16172 4941.822730
0.035000 0.035469 33996.808699 870.019535 -2879.692267 -809.847172 -6328.754618 31764 4941.822730
0.045000 0.045378 26570.688873 285.123737 -579.347838 -131.317561 -1002.922301 52164 4941.822730
0.055000 0.055280 23557.887735 420.904484 936.266010 111.937261 -1615.849312 77396 4941.822730
0.065000 0.065232 20339.908837 102.395321 -1373.196181 159.506953 1378.103154 108936 4941.822730
0.075000 0.075229 17586.063473 210.620520 -2037.112014 104.399543 1744.974891 144980 4941.822730
0.085000 0.085193 14968.214275 216.838127 -843.324700 12.026025 1488.175686 184854 4941.822730
0.095000 0.095166 12046.904853 217.627408 -2234.795636 -156.631923 1924.673094 232260 4941.822730
0.105000 0.105155 10675.250053 42.209674 -1895.445739 135.488814 913.670049 282884 4941.822730
0.115000 0.115131 9564.636474 150.728697 -1490.508731 -263.046375 -91.656675 339084 4941.822730
0.125000 0.125124 8368.239377 75.260540 -519.989220 -18.118800 -381.375070 401864 4941.822730
0.135000 0.135125 7696.333029 104.128890 -829.710113 48.378549 35.760988 468084 4941.822730
0.145000 0.145120 6948.411675 86.158917 -1146.480841 -57.056569 159.162303 539940 4941.822730
0.155000 0.155118 6048.682692 90.518667 -1076.168269 -36.027433 341.056980 617324 4941.822730
0.165000 0.165105 5357.012364 48.873604 -489.427563 34.234928 150.059075 697452 4941.822730
0.175000 0.175088 4918.062248 53.137315 -750.532922 19.823308 66.717879 785846 4941.822730
0.185000 0.185089 4637.045426 70.137027 -847.544791 -44.833708 255.230379 879528 4941.822730
0.195000 0.195093 4245.777697 35.258228 -731.369587 16.256763 280.124030 976596 4941.822730
0.205000 0.205084 3929.247384 80.127623 -637.496057 -28.710622 419.537825 1077212 4941.822730
0.215000 0.215076 3504.398655 49.018030 -725.506821 21.064966 104.832320 1186908 4941.822730
0.225000 0.225076 3121.676556 62.246635 -622.196137 -29.946821 358.165981 1299452 4941.822730
0.235000 0.235073 2946.284846 30.402293 -648.283244 27.001783 274.640118 1417356 4941.822730
0.245000 0.245067 2719.954466 52.953153 -691.704789 -5.599511 119.167964 1539600 4941.822730
0.255000 0.255064 2608.876638 49.713511 -825.449329 -9.765673 271.853934 1669820 4941.822730
0.265000 0.265061 2338.382689 47.490080 -675.396706 -24.481247 232.246249 1801086 4941.822730
0.275000 0.275060 2195.801167 41.200560 -839.318491 11.674107 254.887382 1942244 4941.822730
0.285000 0.285062 2085.149218 44.108145 -858.167305 -23.085471 211.142201 2084796 4941.822730
0.295000 0.295057 1954.943631 47.851003 -752.418556 -3.445762 298.698458 2231868 4941.822730
