#Data file /home/DATA/sbrieden/Patchy_dr12_mocks/postrecon/original/Patchy-Mocks-DR12CMASS-S-V6C-Portsmouth-mass_f0784b1850s10_0015.dat
#Random file /home/DATA/sbrieden/Patchy_dr12_mocks/postrecon/original/Patchy-Mocks-DR12CMASS-S-V6C-Portsmouth-mass_f0784b1850s10_0015.ran
#Number of data elements used: 216130
#Number of random elements used: 4288355
#Effective number of data elements weighted by wcol: 216130.000000
#Effective number of random elements weighted by wcol: 4288355.000000
#Effective number of data elements weighted by wcol*wsys: 216130.000000
#Effective number of random elements weighted by wcol*wsys: 4288355.000000
#Effective redshift value from data 0.597466
#Effective redshift value from randoms 0.596647
#Size of the Box 3700.000000 Mpc/h
#Area of the survey used 2525.000000 deg^2
#Value of alpha: 0.050721
#Normalization using data file
#Normalization using density
#Normalization 4.115514
#Shot noise factor 1.000000
#Shot noise value 4985.867741
#Type of Computation: FFT
#Number of grid cells: 512
#Type of Mass Assigment: TSC
#Type of Yamamoto: GridCenter
#Number of Interlacing steps: 2
#Grid Correction: yes
#Value of Om=0.310000
#Quadrupole as L2
#Octopole as L3
#Hexadecapole as L2L2
#k-centerbin	 k-eff	 Monopole-Pshotnoise	 Dipole	 Quadrupole	 Octopole	 Hexadecapole	 number of modes	 Pshotnoise
0.005000 0.007485 30572.921750 -2466.654615 -1853.178168 3870.698082 10494.737324 846 4985.867741
0.015000 0.016072 47391.294885 -672.630860 -24166.729856 -217.864097 8333.407171 6012 4985.867741
0.025000 0.025646 41465.069588 1003.378133 -4245.395392 -3717.832664 -6997.431737 16172 4985.867741
0.035000 0.035469 32713.376695 369.851061 -6507.906679 65.445045 1446.299343 31764 4985.867741
0.045000 0.045378 29173.504692 429.529688 -1028.770940 229.580228 4663.157620 52164 4985.867741
0.055000 0.055280 23058.153919 195.466875 855.929594 -447.692487 -1562.381063 77396 4985.867741
0.065000 0.065232 20061.937454 221.608297 -1573.085910 387.760939 -1334.539349 108936 4985.867741
0.075000 0.075229 17033.222561 327.755829 -479.516721 -269.789671 1230.938156 144980 4985.867741
0.085000 0.085193 14106.057559 97.566078 -1469.085369 258.984651 -193.923604 184854 4985.867741
0.095000 0.095166 12351.073653 180.839769 -910.759614 -148.620773 -1406.582181 232260 4985.867741
0.105000 0.105155 10631.871291 118.348842 -1169.619745 -19.334148 -362.031566 282884 4985.867741
0.115000 0.115131 9456.942706 103.638658 -743.910772 -10.013866 -93.969832 339084 4985.867741
0.125000 0.125124 8712.247831 75.090027 -1024.172606 118.380544 841.799917 401864 4985.867741
0.135000 0.135125 7953.523939 45.557369 -1394.999765 -22.593475 735.300185 468084 4985.867741
0.145000 0.145120 7101.741459 140.213353 -1329.773537 -146.742916 339.494108 539940 4985.867741
0.155000 0.155118 6074.806502 82.710126 -714.824238 6.204194 -12.639830 617324 4985.867741
0.165000 0.165105 5282.763457 86.728673 -776.684006 -57.981304 -449.924753 697452 4985.867741
0.175000 0.175088 4784.957863 32.397239 -689.440241 77.834042 -458.254472 785846 4985.867741
0.185000 0.185089 4586.389811 63.235114 -913.538501 -75.948913 -52.494922 879528 4985.867741
0.195000 0.195093 4386.731092 55.291963 -883.052661 39.285838 15.626344 976596 4985.867741
0.205000 0.205084 3868.436686 51.863810 -779.832045 -13.949703 73.837865 1077212 4985.867741
0.215000 0.215076 3602.046729 57.827239 -725.004018 -16.135195 324.621570 1186908 4985.867741
0.225000 0.225076 3297.646754 49.518461 -622.132018 13.252903 279.730200 1299452 4985.867741
0.235000 0.235073 2977.896062 52.829108 -868.562288 -21.437958 285.186973 1417356 4985.867741
0.245000 0.245067 2816.125143 55.149002 -780.157578 -18.878754 274.541329 1539600 4985.867741
0.255000 0.255064 2586.268559 39.638231 -921.268421 11.769136 403.352449 1669820 4985.867741
0.265000 0.265061 2543.934254 34.273561 -782.537512 -2.333717 134.192010 1801086 4985.867741
0.275000 0.275060 2296.538757 59.781369 -731.544617 -41.681486 82.962598 1942244 4985.867741
0.285000 0.285062 2148.031928 49.935657 -787.449105 -9.690416 231.752463 2084796 4985.867741
0.295000 0.295057 1960.874754 46.376161 -655.333759 9.178262 275.702600 2231868 4985.867741
