#Data file /home/DATA/sbrieden/Patchy_dr12_mocks/postrecon/original/Patchy-Mocks-DR12CMASS-N-V6C-Portsmouth-mass_f0784b1850s10_0028.dat
#Random file /home/DATA/sbrieden/Patchy_dr12_mocks/postrecon/original/Patchy-Mocks-DR12CMASS-N-V6C-Portsmouth-mass_f0784b1850s10_0028.ran
#Number of data elements used: 586249
#Number of random elements used: 11778931
#Effective number of data elements weighted by wcol: 586249.000000
#Effective number of random elements weighted by wcol: 11778931.000000
#Effective number of data elements weighted by wcol*wsys: 586249.000000
#Effective number of random elements weighted by wcol*wsys: 11778931.000000
#Effective redshift value from data 0.597926
#Effective redshift value from randoms 0.597671
#Size of the Box 3700.000000 Mpc/h
#Area of the survey used 6851.000000 deg^2
#Value of alpha: 0.049977
#Normalization using data file
#Normalization using density
#Normalization 11.037815
#Shot noise factor 1.000000
#Shot noise value 4978.773632
#Type of Computation: FFT
#Number of grid cells: 512
#Type of Mass Assigment: TSC
#Type of Yamamoto: GridCenter
#Number of Interlacing steps: 2
#Grid Correction: yes
#Value of Om=0.310000
#Quadrupole as L2
#Octopole as L3
#Hexadecapole as L2L2
#k-centerbin	 k-eff	 Monopole-Pshotnoise	 Dipole	 Quadrupole	 Octopole	 Hexadecapole	 number of modes	 Pshotnoise
0.005000 0.007485 60227.576917 1974.428545 -1178.191684 -5008.729731 -22834.386389 846 4978.773632
0.015000 0.016072 50779.926495 45.197790 -1649.915025 3571.812233 14641.412829 6012 4978.773632
0.025000 0.025646 44123.970810 876.666337 -1755.048576 -2510.068186 508.543050 16172 4978.773632
0.035000 0.035469 34585.168131 515.210781 1945.461640 445.801002 -6967.088475 31764 4978.773632
0.045000 0.045378 27654.462851 469.531301 -4869.637861 324.190964 1533.840914 52164 4978.773632
0.055000 0.055280 23094.472230 109.442532 -3054.515305 -28.707510 3640.783201 77396 4978.773632
0.065000 0.065232 20975.838251 256.047904 -1998.625354 -272.380916 1213.773042 108936 4978.773632
0.075000 0.075229 18065.877626 256.489280 -2041.638721 -60.099718 -14.320445 144980 4978.773632
0.085000 0.085193 15074.935395 237.999447 -931.816552 51.097040 -434.540222 184854 4978.773632
0.095000 0.095166 12185.336075 166.498222 -1904.654025 -26.290181 1182.721900 232260 4978.773632
0.105000 0.105155 10689.189422 133.791830 -982.468543 -180.801170 -614.226408 282884 4978.773632
0.115000 0.115131 9419.032756 94.188549 -908.080324 76.100150 -332.562878 339084 4978.773632
0.125000 0.125124 8709.381411 93.902307 -422.668339 -79.038721 448.642351 401864 4978.773632
0.135000 0.135125 7774.469558 68.363298 -661.105856 -19.396528 -117.847923 468084 4978.773632
0.145000 0.145120 6918.257888 110.610045 -431.772523 27.043527 -288.211945 539940 4978.773632
0.155000 0.155118 6102.680604 66.390358 -618.832161 -2.715365 47.927237 617324 4978.773632
0.165000 0.165105 5541.066913 64.393160 -824.309455 18.130210 97.477202 697452 4978.773632
0.175000 0.175088 5008.089972 64.969918 -729.152283 -39.248258 -36.370478 785846 4978.773632
0.185000 0.185089 4740.480947 47.411609 -657.172652 -16.763686 -61.246954 879528 4978.773632
0.195000 0.195093 4417.831810 59.764719 -546.631125 1.424736 133.838675 976596 4978.773632
0.205000 0.205084 4064.372306 55.570301 -513.914561 8.306801 247.758925 1077212 4978.773632
0.215000 0.215076 3648.574394 59.559052 -657.244426 4.749020 240.810235 1186908 4978.773632
0.225000 0.225076 3359.130199 54.407235 -759.656713 -12.540860 154.714631 1299452 4978.773632
0.235000 0.235073 3030.385196 50.382005 -702.849444 -11.457625 295.498218 1417356 4978.773632
0.245000 0.245067 2850.620201 48.130644 -664.539004 0.553279 115.075805 1539600 4978.773632
0.255000 0.255064 2671.510325 44.569711 -605.401931 -11.986837 275.030122 1669820 4978.773632
0.265000 0.265061 2436.836893 56.166459 -699.745434 2.089081 128.706598 1801086 4978.773632
0.275000 0.275060 2251.164104 45.680792 -737.319097 -4.718136 320.801540 1942244 4978.773632
0.285000 0.285062 2098.209284 42.682403 -781.205426 -6.212548 241.450849 2084796 4978.773632
0.295000 0.295057 2007.490903 48.051116 -615.735754 -27.432238 248.640320 2231868 4978.773632
