#Data file /home/DATA/sbrieden/Patchy_dr12_mocks/postrecon/original/Patchy-Mocks-DR12LOWZ-N-V5C-Portsmouth-mass_f0693b1850s10_0006.dat
#Random file /home/DATA/sbrieden/Patchy_dr12_mocks/postrecon/original/Patchy-Mocks-DR12LOWZ-N-V5C-Portsmouth-mass_f0693b1850s10_0006.ran
#Number of data elements used: 235157
#Number of random elements used: 4683310
#Effective number of data elements weighted by wcol: 235157.000000
#Effective number of random elements weighted by wcol: 4683310.000000
#Effective number of data elements weighted by wcol*wsys: 235157.000000
#Effective number of random elements weighted by wcol*wsys: 4683310.000000
#Effective redshift value from data 0.329881
#Effective redshift value from randoms 0.330158
#Size of the Box 2500.000000 Mpc/h
#Area of the survey used 5826.000000 deg^2
#Value of alpha: 0.050173
#Normalization using data file
#Normalization using density
#Normalization 4.356104
#Shot noise factor 1.000000
#Shot noise value 3653.479296
#Type of Computation: FFT
#Number of grid cells: 512
#Type of Mass Assigment: TSC
#Type of Yamamoto: GridCenter
#Number of Interlacing steps: 2
#Grid Correction: yes
#Value of Om=0.310000
#Quadrupole as L2
#Octopole as L3
#Hexadecapole as L2L2
#k-centerbin	 k-eff	 Monopole-Pshotnoise	 Dipole	 Quadrupole	 Octopole	 Hexadecapole	 number of modes	 Pshotnoise
0.005000 0.007385 55414.921506 -17150.423788 -35519.803547 -29517.944484 -11611.384252 250 3653.479296
0.015000 0.016012 62605.120527 2838.871533 -14826.585304 -11997.345101 -26463.776547 1852 3653.479296
0.025000 0.025646 49494.076832 1048.144088 -8101.475326 -1092.627811 -4306.466767 5020 3653.479296
0.035000 0.035469 41729.277214 907.307861 -2906.778086 372.780542 -6755.930373 9756 3653.479296
0.045000 0.045368 32533.714046 1470.882328 -2659.949800 -2291.502236 2230.088482 16108 3653.479296
0.055000 0.055314 25636.570028 281.927897 -2971.420454 644.080394 1208.630330 24064 3653.479296
0.065000 0.065258 22038.032929 671.372517 -860.433763 -157.267409 -2473.191009 33396 3653.479296
0.075000 0.075209 19432.316532 137.090637 -3227.523732 -220.756071 761.901827 44596 3653.479296
0.085000 0.085175 15770.911715 430.153044 -505.666644 -122.037604 769.049884 57124 3653.479296
0.095000 0.095157 13785.736161 256.260563 -1138.121104 271.161554 3727.986770 71620 3653.479296
0.105000 0.105162 11360.346788 209.016218 -1382.345593 -66.996114 102.207204 87552 3653.479296
0.115000 0.115148 9722.572213 207.200690 -1269.206825 -35.085613 330.146685 104524 3653.479296
0.125000 0.125146 9327.395891 74.353125 -1755.449982 -209.927334 -191.911631 124228 3653.479296
0.135000 0.135146 8591.739575 104.023030 -1096.266462 41.576729 225.836306 144204 3653.479296
0.145000 0.145132 7541.793519 144.618754 -753.483361 -74.100193 22.051139 166492 3653.479296
0.155000 0.155114 6638.083079 105.369655 -1006.326690 47.882695 67.206930 189964 3653.479296
0.165000 0.165102 5947.084837 89.944410 -959.856500 -21.804504 530.470359 215640 3653.479296
0.175000 0.175105 5406.969319 109.962288 -820.396073 -33.491064 -13.635833 242836 3653.479296
0.185000 0.185097 4844.124909 56.475852 -851.116744 -41.943847 318.750134 270556 3653.479296
0.195000 0.195085 4424.119756 76.627533 -521.723806 -60.985435 44.704191 301084 3653.479296
0.205000 0.205080 4086.948356 34.575728 -720.338319 135.392499 -53.316316 332628 3653.479296
0.215000 0.215092 3720.289833 89.025403 -609.104309 -95.841918 128.984174 367216 3653.479296
0.225000 0.225099 3362.502181 68.731096 -634.947064 -24.856703 230.197437 400444 3653.479296
0.235000 0.235081 3019.674010 37.065725 -567.580545 -3.209915 251.984893 436500 3653.479296
0.245000 0.245077 2916.136315 39.552101 -803.655872 5.736028 -22.205041 475900 3653.479296
0.255000 0.255082 2701.261842 44.114924 -697.492497 13.691236 148.844840 514900 3653.479296
0.265000 0.265074 2567.114154 37.737724 -860.721145 -0.710385 248.155806 555408 3653.479296
0.275000 0.275066 2341.089306 55.715411 -750.999864 -39.905447 186.450552 598684 3653.479296
0.285000 0.285066 2117.157649 16.015263 -781.479002 55.597103 309.900207 643228 3653.479296
0.295000 0.295058 2085.026881 50.017299 -929.351351 -21.470831 336.568262 688036 3653.479296
