#Data file /home/DATA/sbrieden/Patchy_dr12_mocks/postrecon/original/Patchy-Mocks-DR12CMASS-S-V6C-Portsmouth-mass_f0784b1850s10_0020.dat
#Random file /home/DATA/sbrieden/Patchy_dr12_mocks/postrecon/original/Patchy-Mocks-DR12CMASS-S-V6C-Portsmouth-mass_f0784b1850s10_0020.ran
#Number of data elements used: 213689
#Number of random elements used: 4283866
#Effective number of data elements weighted by wcol: 213689.000000
#Effective number of random elements weighted by wcol: 4283866.000000
#Effective number of data elements weighted by wcol*wsys: 213689.000000
#Effective number of random elements weighted by wcol*wsys: 4283866.000000
#Effective redshift value from data 0.597362
#Effective redshift value from randoms 0.596882
#Size of the Box 3700.000000 Mpc/h
#Area of the survey used 2525.000000 deg^2
#Value of alpha: 0.050057
#Normalization using data file
#Normalization using density
#Normalization 4.061171
#Shot noise factor 1.000000
#Shot noise value 4968.978040
#Type of Computation: FFT
#Number of grid cells: 512
#Type of Mass Assigment: TSC
#Type of Yamamoto: GridCenter
#Number of Interlacing steps: 2
#Grid Correction: yes
#Value of Om=0.310000
#Quadrupole as L2
#Octopole as L3
#Hexadecapole as L2L2
#k-centerbin	 k-eff	 Monopole-Pshotnoise	 Dipole	 Quadrupole	 Octopole	 Hexadecapole	 number of modes	 Pshotnoise
0.005000 0.007485 37623.775576 -4983.367799 -5360.265676 3201.273041 5873.742062 846 4968.978040
0.015000 0.016072 54546.511689 54.390665 -13109.756449 1381.153418 26542.831457 6012 4968.978040
0.025000 0.025646 41473.871584 1283.503873 -9951.411540 -3173.355643 1633.026358 16172 4968.978040
0.035000 0.035469 32291.470403 255.930200 -1882.895138 67.877660 -2547.664346 31764 4968.978040
0.045000 0.045378 27819.378206 369.440407 -1560.802798 232.610214 -2110.465693 52164 4968.978040
0.055000 0.055280 23102.747334 182.506652 -4109.106919 -311.107644 -537.256483 77396 4968.978040
0.065000 0.065232 20199.756862 324.488275 -2952.367166 -107.017344 -459.716834 108936 4968.978040
0.075000 0.075229 16840.532205 124.134177 -1047.222424 110.782273 991.202404 144980 4968.978040
0.085000 0.085193 14401.785933 268.670845 -2824.180359 -134.333961 910.823385 184854 4968.978040
0.095000 0.095166 11528.504040 216.573405 -902.971407 -262.264188 -340.391614 232260 4968.978040
0.105000 0.105155 10273.589602 77.267554 -741.564611 148.351865 285.348594 282884 4968.978040
0.115000 0.115131 9001.196037 98.768782 -442.935193 -142.051464 -144.427167 339084 4968.978040
0.125000 0.125124 8616.753821 48.092198 -1220.846413 218.609461 515.746610 401864 4968.978040
0.135000 0.135125 7600.807125 98.203856 -891.301520 -165.842709 232.987946 468084 4968.978040
0.145000 0.145120 7143.271261 72.077028 -590.185272 -2.220694 313.357602 539940 4968.978040
0.155000 0.155118 6147.524700 91.685266 -642.873884 80.906031 -71.947068 617324 4968.978040
0.165000 0.165105 5435.906669 60.164109 -1092.353887 -66.160297 73.471051 697452 4968.978040
0.175000 0.175088 5124.793439 57.233648 -792.001764 -24.586327 -211.037072 785846 4968.978040
0.185000 0.185089 4807.480533 75.996723 -984.064031 -44.480274 -191.955022 879528 4968.978040
0.195000 0.195093 4128.038916 48.521363 -568.990892 15.365511 -446.924141 976596 4968.978040
0.205000 0.205084 3929.456359 50.199213 -614.583065 22.635320 158.919978 1077212 4968.978040
0.215000 0.215076 3554.935351 60.276289 -644.652343 -24.817006 46.247234 1186908 4968.978040
0.225000 0.225076 3312.486576 55.524466 -650.986672 18.102359 366.119969 1299452 4968.978040
0.235000 0.235073 2959.812770 43.835849 -604.451229 -25.537123 234.951207 1417356 4968.978040
0.245000 0.245067 2830.468327 50.090320 -698.264974 5.256856 259.047880 1539600 4968.978040
0.255000 0.255064 2621.066490 42.783610 -816.426460 -12.042954 114.387362 1669820 4968.978040
0.265000 0.265061 2501.942538 47.008586 -894.422339 -11.005272 88.821032 1801086 4968.978040
0.275000 0.275060 2308.123760 49.231524 -869.059363 1.354814 71.009617 1942244 4968.978040
0.285000 0.285062 2141.676175 48.874480 -837.623229 -17.594721 98.210869 2084796 4968.978040
0.295000 0.295057 1934.317189 59.059416 -701.610941 -35.192136 221.337646 2231868 4968.978040
