#Data file /home/DATA/sbrieden/Patchy_dr12_mocks/postrecon/original/Patchy-Mocks-DR12CMASS-N-V6C-Portsmouth-mass_f0784b1850s10_0021.dat
#Random file /home/DATA/sbrieden/Patchy_dr12_mocks/postrecon/original/Patchy-Mocks-DR12CMASS-N-V6C-Portsmouth-mass_f0784b1850s10_0021.ran
#Number of data elements used: 582657
#Number of random elements used: 11778796
#Effective number of data elements weighted by wcol: 582657.000000
#Effective number of random elements weighted by wcol: 11778796.000000
#Effective number of data elements weighted by wcol*wsys: 582657.000000
#Effective number of random elements weighted by wcol*wsys: 11778796.000000
#Effective redshift value from data 0.597933
#Effective redshift value from randoms 0.597573
#Size of the Box 3700.000000 Mpc/h
#Area of the survey used 6851.000000 deg^2
#Value of alpha: 0.049693
#Normalization using data file
#Normalization using density
#Normalization 10.972488
#Shot noise factor 1.000000
#Shot noise value 4984.497764
#Type of Computation: FFT
#Number of grid cells: 512
#Type of Mass Assigment: TSC
#Type of Yamamoto: GridCenter
#Number of Interlacing steps: 2
#Grid Correction: yes
#Value of Om=0.310000
#Quadrupole as L2
#Octopole as L3
#Hexadecapole as L2L2
#k-centerbin	 k-eff	 Monopole-Pshotnoise	 Dipole	 Quadrupole	 Octopole	 Hexadecapole	 number of modes	 Pshotnoise
0.005000 0.007485 51285.180267 -3211.659987 2490.824327 13078.868218 29369.795570 846 4984.497764
0.015000 0.016072 48116.018806 1286.914475 1800.855305 328.386462 11058.889906 6012 4984.497764
0.025000 0.025646 47302.467362 371.932706 -10585.414587 -627.609249 1643.565393 16172 4984.497764
0.035000 0.035469 34593.814742 381.256026 -7998.292383 395.741939 3524.342298 31764 4984.497764
0.045000 0.045378 27526.363569 434.361212 -1285.373686 -475.324704 3664.163076 52164 4984.497764
0.055000 0.055280 23817.561360 215.935255 -3321.962446 132.719612 4261.789750 77396 4984.497764
0.065000 0.065232 20884.384732 316.936798 -2263.370870 -384.629719 522.800489 108936 4984.497764
0.075000 0.075229 17450.865441 229.779794 -2208.827354 42.967436 -76.848127 144980 4984.497764
0.085000 0.085193 14581.661095 242.191699 -1594.015883 -107.763157 -334.489787 184854 4984.497764
0.095000 0.095166 11965.955746 147.938718 -2218.418658 68.013771 164.109775 232260 4984.497764
0.105000 0.105155 10391.920765 86.417940 -1775.603951 -103.786219 -230.424656 282884 4984.497764
0.115000 0.115131 9113.279965 131.856432 -812.292665 -27.694796 472.408510 339084 4984.497764
0.125000 0.125124 8736.696444 86.181593 -1039.927708 -68.764362 169.288126 401864 4984.497764
0.135000 0.135125 7855.292910 58.038298 -779.162526 30.445505 828.326818 468084 4984.497764
0.145000 0.145120 7165.790425 94.949591 -1002.202326 -5.104464 258.791039 539940 4984.497764
0.155000 0.155118 6039.235458 86.099580 -803.720700 -4.071178 -109.933892 617324 4984.497764
0.165000 0.165105 5393.363157 69.881791 -738.222471 -26.438588 293.501146 697452 4984.497764
0.175000 0.175088 5059.337909 55.358448 -770.954847 -13.284640 222.491735 785846 4984.497764
0.185000 0.185089 4669.291668 69.133598 -629.000885 -48.277564 212.579710 879528 4984.497764
0.195000 0.195093 4323.666359 53.813303 -515.881729 36.462695 282.460124 976596 4984.497764
0.205000 0.205084 3955.296772 51.570497 -479.486332 -18.571916 280.775501 1077212 4984.497764
0.215000 0.215076 3617.549270 57.832965 -601.153902 19.137028 138.198249 1186908 4984.497764
0.225000 0.225076 3233.902331 48.903389 -632.158579 -24.854094 87.949399 1299452 4984.497764
0.235000 0.235073 3021.520572 43.724895 -573.893858 19.515390 130.905650 1417356 4984.497764
0.245000 0.245067 2810.434056 54.689838 -699.075640 -21.028620 121.759364 1539600 4984.497764
0.255000 0.255064 2613.995718 49.443486 -756.137770 24.950062 254.152940 1669820 4984.497764
0.265000 0.265061 2469.727177 43.153681 -739.937059 -33.622622 402.040374 1801086 4984.497764
0.275000 0.275060 2293.375667 55.648136 -642.761460 -23.820007 248.443913 1942244 4984.497764
0.285000 0.285062 2132.899321 39.392086 -605.411502 8.921362 194.444106 2084796 4984.497764
0.295000 0.295057 1982.107150 52.686873 -754.571791 6.254369 312.234285 2231868 4984.497764
