#Data file /home/DATA/sbrieden/Patchy_dr12_mocks/postrecon/original/Patchy-Mocks-DR12CMASS-N-V6C-Portsmouth-mass_f0784b1850s10_0080.dat
#Random file /home/DATA/sbrieden/Patchy_dr12_mocks/postrecon/original/Patchy-Mocks-DR12CMASS-N-V6C-Portsmouth-mass_f0784b1850s10_0080.ran
#Number of data elements used: 585340
#Number of random elements used: 11768695
#Effective number of data elements weighted by wcol: 585340.000000
#Effective number of random elements weighted by wcol: 11768695.000000
#Effective number of data elements weighted by wcol*wsys: 585340.000000
#Effective number of random elements weighted by wcol*wsys: 11768695.000000
#Effective redshift value from data 0.597680
#Effective redshift value from randoms 0.597931
#Size of the Box 3700.000000 Mpc/h
#Area of the survey used 6851.000000 deg^2
#Value of alpha: 0.049765
#Normalization using data file
#Normalization using density
#Normalization 10.996846
#Shot noise factor 1.000000
#Shot noise value 4958.263579
#Type of Computation: FFT
#Number of grid cells: 512
#Type of Mass Assigment: TSC
#Type of Yamamoto: GridCenter
#Number of Interlacing steps: 2
#Grid Correction: yes
#Value of Om=0.310000
#Quadrupole as L2
#Octopole as L3
#Hexadecapole as L2L2
#k-centerbin	 k-eff	 Monopole-Pshotnoise	 Dipole	 Quadrupole	 Octopole	 Hexadecapole	 number of modes	 Pshotnoise
0.005000 0.007485 53723.045756 -4680.134758 -11084.266391 14375.149191 32712.772300 846 4958.263579
0.015000 0.016072 51567.035758 1695.339039 -3426.352318 367.913218 19276.075434 6012 4958.263579
0.025000 0.025646 41507.012273 374.087163 -571.831127 -1093.043222 -3015.723587 16172 4958.263579
0.035000 0.035469 34480.108287 429.485537 1049.522818 331.336785 -2114.095270 31764 4958.263579
0.045000 0.045378 28189.798852 394.025302 1129.962517 422.293653 1416.981300 52164 4958.263579
0.055000 0.055280 24299.753577 404.164882 -2553.628338 -504.292075 -3007.093291 77396 4958.263579
0.065000 0.065232 19863.598483 167.692607 -2880.572337 247.122298 283.495368 108936 4958.263579
0.075000 0.075229 17700.195410 227.824014 -2430.489882 -260.169778 -698.454360 144980 4958.263579
0.085000 0.085193 15115.623092 179.990788 -1653.500231 -18.194622 -522.962756 184854 4958.263579
0.095000 0.095166 12398.381424 223.961654 -1251.667100 4.349359 429.437024 232260 4958.263579
0.105000 0.105155 10361.698427 106.174611 -1354.989807 -141.877332 489.252011 282884 4958.263579
0.115000 0.115131 9823.500339 94.995481 -945.420067 -51.499114 -398.473986 339084 4958.263579
0.125000 0.125124 8691.719483 50.493255 -1060.324290 121.205598 -405.948030 401864 4958.263579
0.135000 0.135125 7727.387420 90.818087 -1157.227080 -20.597175 -324.411268 468084 4958.263579
0.145000 0.145120 7170.434641 101.272301 -810.905938 -77.241011 212.137875 539940 4958.263579
0.155000 0.155118 6182.937099 92.477316 -886.997075 -4.743743 -6.928504 617324 4958.263579
0.165000 0.165105 5495.515927 70.603708 -560.504745 -1.018803 165.272419 697452 4958.263579
0.175000 0.175088 5094.833147 43.271233 -753.503912 19.969981 61.289665 785846 4958.263579
0.185000 0.185089 4735.303113 66.381381 -747.747619 -31.032557 36.384436 879528 4958.263579
0.195000 0.195093 4299.614996 57.684625 -730.740998 -19.956448 187.526921 976596 4958.263579
0.205000 0.205084 3986.053707 60.129171 -525.584409 -11.270602 -6.243062 1077212 4958.263579
0.215000 0.215076 3646.711934 51.872962 -640.198120 16.816324 223.297173 1186908 4958.263579
0.225000 0.225076 3273.026969 56.895348 -592.126896 -17.287316 21.978299 1299452 4958.263579
0.235000 0.235073 3064.255215 51.294756 -723.099146 -1.772060 246.578592 1417356 4958.263579
0.245000 0.245067 2830.978019 33.052479 -741.032638 23.637754 368.626743 1539600 4958.263579
0.255000 0.255064 2648.366725 53.372333 -709.698718 -42.651749 311.300861 1669820 4958.263579
0.265000 0.265061 2441.540306 65.026583 -716.210137 -25.129081 44.480706 1801086 4958.263579
0.275000 0.275060 2273.180291 39.121105 -659.106056 8.274365 97.962746 1942244 4958.263579
0.285000 0.285062 2118.720981 47.546821 -655.596991 -4.758035 259.499262 2084796 4958.263579
0.295000 0.295057 1987.196424 38.600905 -663.199704 6.809501 215.691504 2231868 4958.263579
