#Data file /home/DATA/sbrieden/Patchy_dr12_mocks/postrecon/original/Patchy-Mocks-DR12LOWZ-N-V5C-Portsmouth-mass_f0693b1850s10_0013.dat
#Random file /home/DATA/sbrieden/Patchy_dr12_mocks/postrecon/original/Patchy-Mocks-DR12LOWZ-N-V5C-Portsmouth-mass_f0693b1850s10_0013.ran
#Number of data elements used: 232270
#Number of random elements used: 4681043
#Effective number of data elements weighted by wcol: 232270.000000
#Effective number of random elements weighted by wcol: 4681043.000000
#Effective number of data elements weighted by wcol*wsys: 232270.000000
#Effective number of random elements weighted by wcol*wsys: 4681043.000000
#Effective redshift value from data 0.330481
#Effective redshift value from randoms 0.329806
#Size of the Box 2500.000000 Mpc/h
#Area of the survey used 5826.000000 deg^2
#Value of alpha: 0.049726
#Normalization using data file
#Normalization using density
#Normalization 4.310559
#Shot noise factor 1.000000
#Shot noise value 3665.931963
#Type of Computation: FFT
#Number of grid cells: 512
#Type of Mass Assigment: TSC
#Type of Yamamoto: GridCenter
#Number of Interlacing steps: 2
#Grid Correction: yes
#Value of Om=0.310000
#Quadrupole as L2
#Octopole as L3
#Hexadecapole as L2L2
#k-centerbin	 k-eff	 Monopole-Pshotnoise	 Dipole	 Quadrupole	 Octopole	 Hexadecapole	 number of modes	 Pshotnoise
0.005000 0.007385 48195.077669 -9651.426847 -11720.886199 -1384.836539 3282.482732 250 3665.931963
0.015000 0.016012 48677.420795 2612.471028 -1739.482801 -10898.926853 -29518.339961 1852 3665.931963
0.025000 0.025646 53085.159136 -73.456947 201.814965 -504.615142 -14170.299224 5020 3665.931963
0.035000 0.035469 41215.047947 1497.258104 -475.618233 1312.251323 3630.604699 9756 3665.931963
0.045000 0.045368 31117.523849 1011.930267 -5312.666468 -507.116254 -3604.526114 16108 3665.931963
0.055000 0.055314 26079.710126 142.039567 -4708.223092 199.336217 134.344573 24064 3665.931963
0.065000 0.065258 23766.581408 226.505000 -3760.391260 -290.926761 47.093010 33396 3665.931963
0.075000 0.075209 19814.636110 696.613148 -1061.273882 -736.008382 -1982.113113 44596 3665.931963
0.085000 0.085175 16215.529595 338.854533 -249.509872 -470.030472 -2866.959579 57124 3665.931963
0.095000 0.095157 13377.907089 223.942947 -148.214657 514.275292 -1522.148934 71620 3665.931963
0.105000 0.105162 11352.487550 228.567956 -1110.129229 25.104308 1211.113964 87552 3665.931963
0.115000 0.115148 10049.314496 170.471753 -1146.068671 -238.608048 -349.331727 104524 3665.931963
0.125000 0.125146 9298.972885 134.398191 -720.847169 52.767089 146.253388 124228 3665.931963
0.135000 0.135146 8341.786282 141.216193 -955.030171 -107.093343 73.964909 144204 3665.931963
0.145000 0.145132 7288.545071 153.889457 -620.912323 -9.695485 -307.785288 166492 3665.931963
0.155000 0.155114 6327.422660 91.781683 -670.703351 21.504852 305.583209 189964 3665.931963
0.165000 0.165102 5895.208059 87.743254 -619.217951 55.865522 -149.356576 215640 3665.931963
0.175000 0.175105 5292.227781 89.928157 -710.461875 -134.518398 -96.687473 242836 3665.931963
0.185000 0.185097 4773.209568 64.984029 -521.122782 -30.709142 185.805874 270556 3665.931963
0.195000 0.195085 4436.493555 58.054250 55.372733 28.256254 446.103105 301084 3665.931963
0.205000 0.205080 4062.720529 57.922691 -551.451459 68.954915 -55.667617 332628 3665.931963
0.215000 0.215092 3664.643785 62.913473 -956.281597 38.491333 6.850594 367216 3665.931963
0.225000 0.225099 3352.154996 43.085865 -780.415847 -78.092559 114.277439 400444 3665.931963
0.235000 0.235081 3128.650473 59.801692 -730.993442 -3.875229 -143.708740 436500 3665.931963
0.245000 0.245077 2825.347707 51.420966 -754.130709 13.470252 287.122263 475900 3665.931963
0.255000 0.255082 2670.185298 23.305676 -768.025872 -1.814359 285.288025 514900 3665.931963
0.265000 0.265074 2544.305419 72.235356 -829.317119 -18.769254 334.058961 555408 3665.931963
0.275000 0.275066 2209.161627 37.007177 -703.487986 -11.389854 356.262777 598684 3665.931963
0.285000 0.285066 2117.954636 33.022476 -748.336798 -8.307655 228.406185 643228 3665.931963
0.295000 0.295058 1959.977269 38.856719 -775.625159 22.735333 334.487938 688036 3665.931963
