#Data file /home/DATA/sbrieden/Patchy_dr12_mocks/postrecon/original/Patchy-Mocks-DR12LOWZ-S-V5C-Portsmouth-mass_f0693b1850s10_0039.dat
#Random file /home/DATA/sbrieden/Patchy_dr12_mocks/postrecon/original/Patchy-Mocks-DR12LOWZ-S-V5C-Portsmouth-mass_f0693b1850s10_0039.ran
#Number of data elements used: 102754
#Number of random elements used: 2005799
#Effective number of data elements weighted by wcol: 102754.000000
#Effective number of random elements weighted by wcol: 2005799.000000
#Effective number of data elements weighted by wcol*wsys: 102754.000000
#Effective number of random elements weighted by wcol*wsys: 2005799.000000
#Effective redshift value from data 0.330557
#Effective redshift value from randoms 0.329884
#Size of the Box 2500.000000 Mpc/h
#Area of the survey used 2501.000000 deg^2
#Value of alpha: 0.051353
#Normalization using data file
#Normalization using density
#Normalization 1.907456
#Shot noise factor 1.000000
#Shot noise value 3675.647386
#Type of Computation: FFT
#Number of grid cells: 512
#Type of Mass Assigment: TSC
#Type of Yamamoto: GridCenter
#Number of Interlacing steps: 2
#Grid Correction: yes
#Value of Om=0.310000
#Quadrupole as L2
#Octopole as L3
#Hexadecapole as L2L2
#k-centerbin	 k-eff	 Monopole-Pshotnoise	 Dipole	 Quadrupole	 Octopole	 Hexadecapole	 number of modes	 Pshotnoise
0.005000 0.007385 30857.340605 -4748.211836 -18150.394945 -10861.554017 5674.428973 250 3675.647386
0.015000 0.016012 62011.116577 -4592.861987 -51382.365110 -1599.025874 16430.072496 1852 3675.647386
0.025000 0.025646 50722.352350 2273.124880 -20772.269372 -5432.281149 -4901.298041 5020 3675.647386
0.035000 0.035469 38865.409617 1178.508679 -11428.323300 -2822.684786 2380.243139 9756 3675.647386
0.045000 0.045368 30920.569444 -162.351326 -10002.148609 548.341283 3149.469960 16108 3675.647386
0.055000 0.055314 27170.211248 789.867245 -10193.672535 -1525.331965 1689.022710 24064 3675.647386
0.065000 0.065258 22409.266498 569.603363 -4762.009189 -973.904918 -1980.903474 33396 3675.647386
0.075000 0.075209 19478.766013 139.057071 -160.219211 328.637497 2040.898443 44596 3675.647386
0.085000 0.085175 17221.523578 575.505424 -4207.371046 177.434684 839.943977 57124 3675.647386
0.095000 0.095157 13016.183461 393.237513 -2219.546362 -505.253988 3027.656477 71620 3675.647386
0.105000 0.105162 10966.507679 134.795188 -326.661305 -213.578466 777.596780 87552 3675.647386
0.115000 0.115148 10498.252206 148.179439 -139.021760 -175.175716 -435.616456 104524 3675.647386
0.125000 0.125146 9645.465019 87.041722 255.281588 319.329675 191.519115 124228 3675.647386
0.135000 0.135146 8473.254282 165.656607 -157.704538 58.299290 717.100802 144204 3675.647386
0.145000 0.145132 7567.547161 75.652591 -1025.610720 82.926772 456.555226 166492 3675.647386
0.155000 0.155114 7080.610923 154.818277 -1303.366758 -197.345729 979.355101 189964 3675.647386
0.165000 0.165102 6131.899710 107.426593 86.820906 -52.040889 -26.246914 215640 3675.647386
0.175000 0.175105 5372.778972 79.841191 -376.632984 33.668390 8.522455 242836 3675.647386
0.185000 0.185097 5234.304807 57.886862 -501.799904 21.282235 -126.728088 270556 3675.647386
0.195000 0.195085 4457.102560 82.591450 -976.445782 12.772597 503.707535 301084 3675.647386
0.205000 0.205080 4149.366194 63.213651 -714.668504 -1.987094 -155.662756 332628 3675.647386
0.215000 0.215092 3687.658075 73.524994 -739.939526 -62.560300 138.254355 367216 3675.647386
0.225000 0.225099 3427.972613 43.621345 -819.563153 91.156665 342.024113 400444 3675.647386
0.235000 0.235081 3100.981293 55.555671 -874.255872 -34.054976 132.647854 436500 3675.647386
0.245000 0.245077 2724.317971 52.725416 -838.225387 -12.884775 254.829720 475900 3675.647386
0.255000 0.255082 2575.759289 35.647092 -987.149060 -52.343356 111.047476 514900 3675.647386
0.265000 0.265074 2506.319108 45.625517 -743.060899 -3.107199 156.340830 555408 3675.647386
0.275000 0.275066 2334.542778 42.988747 -763.979203 23.389040 289.431011 598684 3675.647386
0.285000 0.285066 2116.958071 37.232915 -760.908294 2.531290 352.090230 643228 3675.647386
0.295000 0.295058 1997.285220 34.179084 -820.116909 -29.753627 367.527542 688036 3675.647386
