#Data file /home/DATA/sbrieden/Patchy_dr12_mocks/postrecon/original/Patchy-Mocks-DR12LOWZ-S-V5C-Portsmouth-mass_f0693b1850s10_0054.dat
#Random file /home/DATA/sbrieden/Patchy_dr12_mocks/postrecon/original/Patchy-Mocks-DR12LOWZ-S-V5C-Portsmouth-mass_f0693b1850s10_0054.ran
#Number of data elements used: 101278
#Number of random elements used: 2003689
#Effective number of data elements weighted by wcol: 101278.000000
#Effective number of random elements weighted by wcol: 2003689.000000
#Effective number of data elements weighted by wcol*wsys: 101278.000000
#Effective number of random elements weighted by wcol*wsys: 2003689.000000
#Effective redshift value from data 0.330300
#Effective redshift value from randoms 0.330017
#Size of the Box 2500.000000 Mpc/h
#Area of the survey used 2501.000000 deg^2
#Value of alpha: 0.050526
#Normalization using data file
#Normalization using density
#Normalization 1.876338
#Shot noise factor 1.000000
#Shot noise value 3653.002795
#Type of Computation: FFT
#Number of grid cells: 512
#Type of Mass Assigment: TSC
#Type of Yamamoto: GridCenter
#Number of Interlacing steps: 2
#Grid Correction: yes
#Value of Om=0.310000
#Quadrupole as L2
#Octopole as L3
#Hexadecapole as L2L2
#k-centerbin	 k-eff	 Monopole-Pshotnoise	 Dipole	 Quadrupole	 Octopole	 Hexadecapole	 number of modes	 Pshotnoise
0.005000 0.007385 56497.495990 -6053.561667 -44304.329559 -14052.785796 -28413.941543 250 3653.002795
0.015000 0.016012 58122.287416 -3479.655156 -21286.458558 -14420.517199 -35488.623788 1852 3653.002795
0.025000 0.025646 44499.359524 2707.896507 -4444.379532 -2866.983720 2030.595658 5020 3653.002795
0.035000 0.035469 35291.232113 946.419861 8857.696485 -2235.602131 -2804.130565 9756 3653.002795
0.045000 0.045368 32645.899895 425.530277 4795.148416 1773.877671 -13915.770673 16108 3653.002795
0.055000 0.055314 25772.998606 1189.447775 997.342396 -315.060986 -5948.115446 24064 3653.002795
0.065000 0.065258 21709.790903 177.514701 2990.886269 427.859837 435.476214 33396 3653.002795
0.075000 0.075209 18710.803958 177.574839 157.185364 451.754000 290.033231 44596 3653.002795
0.085000 0.085175 16672.787958 539.158058 -1317.886704 -526.596388 202.798982 57124 3653.002795
0.095000 0.095157 13406.386301 209.853279 622.670077 224.520368 1132.654596 71620 3653.002795
0.105000 0.105162 11626.740639 284.856579 -782.145548 -131.851754 -1349.117075 87552 3653.002795
0.115000 0.115148 9959.905902 79.032116 -869.929256 -88.964385 -513.047520 104524 3653.002795
0.125000 0.125146 9716.423954 145.311244 136.749170 121.222970 -118.955999 124228 3653.002795
0.135000 0.135146 8204.820590 181.577320 60.364956 -72.394632 -1324.062791 144204 3653.002795
0.145000 0.145132 7149.806402 111.670099 -1240.593368 119.722885 -305.298771 166492 3653.002795
0.155000 0.155114 6530.331425 132.806749 -728.192212 -209.261941 -247.411504 189964 3653.002795
0.165000 0.165102 5613.300845 82.342841 -605.642682 13.693395 -305.966553 215640 3653.002795
0.175000 0.175105 5173.086908 60.157517 -804.736810 58.719835 -436.495639 242836 3653.002795
0.185000 0.185097 4899.923118 38.792157 -767.708892 121.244083 360.375623 270556 3653.002795
0.195000 0.195085 4408.643936 62.549539 -832.131921 -121.550796 435.076015 301084 3653.002795
0.205000 0.205080 4120.335083 94.011731 -654.318939 34.669738 225.057704 332628 3653.002795
0.215000 0.215092 3683.698496 27.523900 -882.790008 20.655644 298.084250 367216 3653.002795
0.225000 0.225099 3290.923379 66.975769 -1042.976891 -90.159396 -75.648225 400444 3653.002795
0.235000 0.235081 3101.044787 58.917426 -952.256001 14.061012 -117.856267 436500 3653.002795
0.245000 0.245077 2766.372981 40.466696 -972.385437 6.233052 413.780435 475900 3653.002795
0.255000 0.255082 2688.348366 51.967201 -726.087622 -24.535515 739.311407 514900 3653.002795
0.265000 0.265074 2414.325908 44.059942 -830.858530 -16.326634 284.474153 555408 3653.002795
0.275000 0.275066 2213.292384 46.531223 -803.741130 55.456487 576.115689 598684 3653.002795
0.285000 0.285066 2024.271762 40.009523 -928.369462 -60.893736 307.174454 643228 3653.002795
0.295000 0.295058 1908.887846 40.053889 -808.765384 -15.651025 121.888615 688036 3653.002795
