#Data file /home/DATA/sbrieden/Patchy_dr12_mocks/postrecon/original/Patchy-Mocks-DR12CMASS-N-V6C-Portsmouth-mass_f0784b1850s10_0040.dat
#Random file /home/DATA/sbrieden/Patchy_dr12_mocks/postrecon/original/Patchy-Mocks-DR12CMASS-N-V6C-Portsmouth-mass_f0784b1850s10_0040.ran
#Number of data elements used: 591167
#Number of random elements used: 11773549
#Effective number of data elements weighted by wcol: 591167.000000
#Effective number of random elements weighted by wcol: 11773549.000000
#Effective number of data elements weighted by wcol*wsys: 591167.000000
#Effective number of random elements weighted by wcol*wsys: 11773549.000000
#Effective redshift value from data 0.597828
#Effective redshift value from randoms 0.597786
#Size of the Box 3700.000000 Mpc/h
#Area of the survey used 6851.000000 deg^2
#Value of alpha: 0.050255
#Normalization using data file
#Normalization using density
#Normalization 11.113355
#Shot noise factor 1.000000
#Shot noise value 4952.206134
#Type of Computation: FFT
#Number of grid cells: 512
#Type of Mass Assigment: TSC
#Type of Yamamoto: GridCenter
#Number of Interlacing steps: 2
#Grid Correction: yes
#Value of Om=0.310000
#Quadrupole as L2
#Octopole as L3
#Hexadecapole as L2L2
#k-centerbin	 k-eff	 Monopole-Pshotnoise	 Dipole	 Quadrupole	 Octopole	 Hexadecapole	 number of modes	 Pshotnoise
0.005000 0.007485 32826.344233 -1076.037995 -3377.299783 -3461.213930 -6274.916823 846 4952.206134
0.015000 0.016072 46984.988682 -854.346539 -5089.608011 1725.725915 4551.664802 6012 4952.206134
0.025000 0.025646 44843.482581 442.767517 -3786.501483 -532.997007 -668.462051 16172 4952.206134
0.035000 0.035469 34691.841757 738.986363 -4345.290974 -230.572500 947.428028 31764 4952.206134
0.045000 0.045378 28732.748010 236.215897 -5102.628911 -13.213389 -387.130828 52164 4952.206134
0.055000 0.055280 23742.277417 354.940373 -1068.661932 -357.552777 1460.286322 77396 4952.206134
0.065000 0.065232 20989.096595 180.543354 -2087.052321 109.732093 -192.392561 108936 4952.206134
0.075000 0.075229 18183.570448 248.161592 -2195.009267 -124.433563 302.578681 144980 4952.206134
0.085000 0.085193 14991.626419 250.075605 -2135.109506 50.380374 428.124505 184854 4952.206134
0.095000 0.095166 12039.129022 233.520765 -1399.854770 -230.666900 1141.906846 232260 4952.206134
0.105000 0.105155 10183.767298 50.554504 -1044.875022 108.753809 -115.211769 282884 4952.206134
0.115000 0.115131 9460.730675 88.422111 -1458.410227 -95.149656 12.542797 339084 4952.206134
0.125000 0.125124 8758.067588 103.473335 -272.574428 -25.523961 -198.388114 401864 4952.206134
0.135000 0.135125 7985.864579 62.848943 -624.777124 -8.742676 -140.457553 468084 4952.206134
0.145000 0.145120 7112.601881 107.094258 -787.205749 -18.266468 -181.029967 539940 4952.206134
0.155000 0.155118 6285.424934 84.802072 -798.108879 -19.455629 -152.313779 617324 4952.206134
0.165000 0.165105 5567.186958 64.341523 -599.287441 8.492303 62.306195 697452 4952.206134
0.175000 0.175088 5061.646934 62.698380 -629.754280 -7.247617 -22.312467 785846 4952.206134
0.185000 0.185089 4745.624291 52.166814 -648.558129 24.981869 275.489672 879528 4952.206134
0.195000 0.195093 4386.638422 64.694739 -648.213970 -46.343373 167.345590 976596 4952.206134
0.205000 0.205084 4024.453001 52.244918 -776.493924 9.494058 176.239867 1077212 4952.206134
0.215000 0.215076 3606.677280 59.840263 -612.609101 -23.092487 138.767260 1186908 4952.206134
0.225000 0.225076 3298.188941 47.850590 -574.790313 16.461355 282.950248 1299452 4952.206134
0.235000 0.235073 3056.577298 57.532038 -498.809465 -9.177917 83.469400 1417356 4952.206134
0.245000 0.245067 2848.933861 41.683507 -689.043796 5.004617 325.914541 1539600 4952.206134
0.255000 0.255064 2615.904233 50.452346 -634.663815 -15.027855 202.581081 1669820 4952.206134
0.265000 0.265061 2500.209694 47.917855 -692.933272 5.830931 250.360947 1801086 4952.206134
0.275000 0.275060 2298.019332 44.111107 -720.045218 -8.668859 410.684657 1942244 4952.206134
0.285000 0.285062 2180.293487 44.527241 -646.923498 1.764359 219.677946 2084796 4952.206134
0.295000 0.295057 2008.106243 51.661283 -736.209179 -14.093971 243.213357 2231868 4952.206134
