#Data file /home/DATA/sbrieden/Patchy_dr12_mocks/postrecon/original/Patchy-Mocks-DR12LOWZ-S-V5C-Portsmouth-mass_f0693b1850s10_0035.dat
#Random file /home/DATA/sbrieden/Patchy_dr12_mocks/postrecon/original/Patchy-Mocks-DR12LOWZ-S-V5C-Portsmouth-mass_f0693b1850s10_0035.ran
#Number of data elements used: 102245
#Number of random elements used: 2004220
#Effective number of data elements weighted by wcol: 102245.000000
#Effective number of random elements weighted by wcol: 2004220.000000
#Effective number of data elements weighted by wcol*wsys: 102245.000000
#Effective number of random elements weighted by wcol*wsys: 2004220.000000
#Effective redshift value from data 0.329601
#Effective redshift value from randoms 0.330283
#Size of the Box 2500.000000 Mpc/h
#Area of the survey used 2501.000000 deg^2
#Value of alpha: 0.050955
#Normalization using data file
#Normalization using density
#Normalization 1.894665
#Shot noise factor 1.000000
#Shot noise value 3650.927956
#Type of Computation: FFT
#Number of grid cells: 512
#Type of Mass Assigment: TSC
#Type of Yamamoto: GridCenter
#Number of Interlacing steps: 2
#Grid Correction: yes
#Value of Om=0.310000
#Quadrupole as L2
#Octopole as L3
#Hexadecapole as L2L2
#k-centerbin	 k-eff	 Monopole-Pshotnoise	 Dipole	 Quadrupole	 Octopole	 Hexadecapole	 number of modes	 Pshotnoise
0.005000 0.007385 15823.629815 -4556.631725 -2788.859086 -2176.071121 8205.064181 250 3650.927956
0.015000 0.016012 61703.916055 -2625.366918 -7770.336004 -7099.340610 -31832.984551 1852 3650.927956
0.025000 0.025646 45236.582574 2110.456370 -3287.254876 -2348.172507 -3555.749693 5020 3650.927956
0.035000 0.035469 39526.972842 1309.636878 -14477.616667 836.790694 866.651046 9756 3650.927956
0.045000 0.045368 30296.208007 139.494471 -8299.859457 322.652762 1367.872986 16108 3650.927956
0.055000 0.055314 25213.704918 364.517483 -4787.365196 -1733.326203 54.639881 24064 3650.927956
0.065000 0.065258 23821.275231 443.412074 -3506.170044 -55.403611 -1014.173386 33396 3650.927956
0.075000 0.075209 20813.862148 666.171247 -3654.792529 -559.578936 6742.124511 44596 3650.927956
0.085000 0.085175 16813.932605 310.851273 855.505505 -526.292717 -2160.826766 57124 3650.927956
0.095000 0.095157 13477.477557 402.024874 -1979.307301 356.715386 -1425.066418 71620 3650.927956
0.105000 0.105162 11320.104217 184.745627 -1425.735830 -99.611703 290.453056 87552 3650.927956
0.115000 0.115148 9712.525734 223.866651 -598.387257 -233.268670 -417.379598 104524 3650.927956
0.125000 0.125146 9165.273567 0.547801 568.718894 71.109180 -1320.202105 124228 3650.927956
0.135000 0.135146 8412.998702 111.587186 -798.106916 257.642693 3.854406 144204 3650.927956
0.145000 0.145132 7414.130296 181.914233 -351.094611 -117.629787 380.866695 166492 3650.927956
0.155000 0.155114 6469.885014 61.193223 -1219.981214 80.345503 -114.786169 189964 3650.927956
0.165000 0.165102 5983.818027 124.287553 -947.744315 -141.088641 45.315476 215640 3650.927956
0.175000 0.175105 5313.404318 61.462069 -1038.188239 -36.513510 -154.170053 242836 3650.927956
0.185000 0.185097 5016.024897 66.274757 -694.038490 -12.573562 -72.150792 270556 3650.927956
0.195000 0.195085 4396.577483 92.466739 -421.103308 2.569135 208.596126 301084 3650.927956
0.205000 0.205080 4127.166863 44.053580 -643.220656 15.997324 -105.939189 332628 3650.927956
0.215000 0.215092 3770.311589 56.155307 -1065.453079 24.959700 371.382096 367216 3650.927956
0.225000 0.225099 3409.628796 74.764046 -769.812560 -146.098041 -26.179881 400444 3650.927956
0.235000 0.235081 3131.707875 39.178052 -641.309617 8.405162 -44.233205 436500 3650.927956
0.245000 0.245077 3032.797639 50.464871 -593.325025 37.908454 269.938475 475900 3650.927956
0.255000 0.255082 2768.414371 45.596783 -682.768743 -12.033032 28.618193 514900 3650.927956
0.265000 0.265074 2545.986503 48.779816 -647.219022 -23.885216 -33.101498 555408 3650.927956
0.275000 0.275066 2312.677799 45.256136 -906.891632 6.618335 -39.069974 598684 3650.927956
0.285000 0.285066 2129.677131 22.292793 -711.605039 32.846830 238.358822 643228 3650.927956
0.295000 0.295058 2107.821484 39.693757 -913.177915 -9.279016 388.069590 688036 3650.927956
