#Data file /home/DATA/sbrieden/Patchy_dr12_mocks/postrecon/original/Patchy-Mocks-DR12CMASS-N-V6C-Portsmouth-mass_f0784b1850s10_0036.dat
#Random file /home/DATA/sbrieden/Patchy_dr12_mocks/postrecon/original/Patchy-Mocks-DR12CMASS-N-V6C-Portsmouth-mass_f0784b1850s10_0036.ran
#Number of data elements used: 587599
#Number of random elements used: 11777474
#Effective number of data elements weighted by wcol: 587599.000000
#Effective number of random elements weighted by wcol: 11777474.000000
#Effective number of data elements weighted by wcol*wsys: 587599.000000
#Effective number of random elements weighted by wcol*wsys: 11777474.000000
#Effective redshift value from data 0.597451
#Effective redshift value from randoms 0.597921
#Size of the Box 3700.000000 Mpc/h
#Area of the survey used 6851.000000 deg^2
#Value of alpha: 0.049914
#Normalization using data file
#Normalization using density
#Normalization 11.046324
#Shot noise factor 1.000000
#Shot noise value 4953.801710
#Type of Computation: FFT
#Number of grid cells: 512
#Type of Mass Assigment: TSC
#Type of Yamamoto: GridCenter
#Number of Interlacing steps: 2
#Grid Correction: yes
#Value of Om=0.310000
#Quadrupole as L2
#Octopole as L3
#Hexadecapole as L2L2
#k-centerbin	 k-eff	 Monopole-Pshotnoise	 Dipole	 Quadrupole	 Octopole	 Hexadecapole	 number of modes	 Pshotnoise
0.005000 0.007485 39580.027457 1420.438219 5320.662059 -5696.685631 -11293.333111 846 4953.801710
0.015000 0.016072 46226.872913 -316.890893 3819.634556 184.009183 -1856.995530 6012 4953.801710
0.025000 0.025646 42216.620654 574.908914 637.979706 907.515856 -1553.708291 16172 4953.801710
0.035000 0.035469 34406.399036 368.615522 -1898.701544 214.475304 1536.999316 31764 4953.801710
0.045000 0.045378 28571.580196 669.334648 -3770.350695 -257.548659 3291.789228 52164 4953.801710
0.055000 0.055280 22242.242314 93.668622 -3559.409014 -151.501264 -322.475849 77396 4953.801710
0.065000 0.065232 21409.610637 213.852725 -2550.944512 92.283986 2029.116532 108936 4953.801710
0.075000 0.075229 18169.189325 261.655151 -1601.341528 -497.092548 -396.524854 144980 4953.801710
0.085000 0.085193 15046.052166 201.584217 -779.028149 152.837287 -1603.106843 184854 4953.801710
0.095000 0.095166 12048.912858 224.933315 -1083.688058 -85.343969 -507.854135 232260 4953.801710
0.105000 0.105155 10302.538317 80.982906 -683.325197 87.627475 511.613441 282884 4953.801710
0.115000 0.115131 9456.943885 69.891122 -854.134668 23.979867 383.087046 339084 4953.801710
0.125000 0.125124 8832.305210 100.319424 -916.748938 -63.727006 361.456538 401864 4953.801710
0.135000 0.135125 8115.608057 90.610588 -418.040610 -63.931614 59.243858 468084 4953.801710
0.145000 0.145120 7128.382712 89.155528 -893.643382 14.955334 -239.246173 539940 4953.801710
0.155000 0.155118 6180.723980 83.175737 -676.380682 40.763522 7.519916 617324 4953.801710
0.165000 0.165105 5517.994678 71.501820 -668.437085 -30.460488 431.205778 697452 4953.801710
0.175000 0.175088 5152.935818 54.605666 -676.998654 -20.922139 -86.926968 785846 4953.801710
0.185000 0.185089 4687.985276 54.531113 -604.936695 -4.093892 160.505915 879528 4953.801710
0.195000 0.195093 4434.232822 61.394433 -721.383721 15.049206 295.480340 976596 4953.801710
0.205000 0.205084 4047.328682 61.400380 -738.769747 -31.100681 326.541143 1077212 4953.801710
0.215000 0.215076 3662.119946 58.153854 -416.198785 9.779631 98.434843 1186908 4953.801710
0.225000 0.225076 3323.536393 60.333729 -625.677458 -16.857137 244.958747 1299452 4953.801710
0.235000 0.235073 3033.946477 47.016012 -506.641569 -6.118921 90.992488 1417356 4953.801710
0.245000 0.245067 2830.710235 47.300484 -651.316781 -9.187275 134.346732 1539600 4953.801710
0.255000 0.255064 2644.343158 46.487773 -677.613585 1.431062 150.795953 1669820 4953.801710
0.265000 0.265061 2527.761564 45.532044 -724.179882 -3.844993 202.756505 1801086 4953.801710
0.275000 0.275060 2333.676582 50.173463 -753.247822 -11.868012 63.911709 1942244 4953.801710
0.285000 0.285062 2074.282561 49.760325 -736.832877 -2.314533 136.627162 2084796 4953.801710
0.295000 0.295057 2006.379983 42.508999 -731.726191 -9.925045 172.662923 2231868 4953.801710
