#Data file /home/DATA/sbrieden/Patchy_dr12_mocks/postrecon/original/Patchy-Mocks-DR12CMASS-S-V6C-Portsmouth-mass_f0784b1850s10_0049.dat
#Random file /home/DATA/sbrieden/Patchy_dr12_mocks/postrecon/original/Patchy-Mocks-DR12CMASS-S-V6C-Portsmouth-mass_f0784b1850s10_0049.ran
#Number of data elements used: 214714
#Number of random elements used: 4278005
#Effective number of data elements weighted by wcol: 214714.000000
#Effective number of random elements weighted by wcol: 4278005.000000
#Effective number of data elements weighted by wcol*wsys: 214714.000000
#Effective number of random elements weighted by wcol*wsys: 4278005.000000
#Effective redshift value from data 0.596849
#Effective redshift value from randoms 0.597157
#Size of the Box 3700.000000 Mpc/h
#Area of the survey used 2525.000000 deg^2
#Value of alpha: 0.050241
#Normalization using data file
#Normalization using density
#Normalization 4.077149
#Shot noise factor 1.000000
#Shot noise value 4950.534504
#Type of Computation: FFT
#Number of grid cells: 512
#Type of Mass Assigment: TSC
#Type of Yamamoto: GridCenter
#Number of Interlacing steps: 2
#Grid Correction: yes
#Value of Om=0.310000
#Quadrupole as L2
#Octopole as L3
#Hexadecapole as L2L2
#k-centerbin	 k-eff	 Monopole-Pshotnoise	 Dipole	 Quadrupole	 Octopole	 Hexadecapole	 number of modes	 Pshotnoise
0.005000 0.007485 46895.415371 -620.868021 -9450.485078 -7676.597856 -17026.322827 846 4950.534504
0.015000 0.016072 43752.415824 26.157380 -809.500556 405.701406 -1973.264326 6012 4950.534504
0.025000 0.025646 41640.041428 87.860816 -11586.827810 -572.649454 5763.277535 16172 4950.534504
0.035000 0.035469 33940.414094 513.361305 -8844.360648 710.537118 7639.963241 31764 4950.534504
0.045000 0.045378 26494.817463 459.049896 -781.525659 -1063.369898 951.488756 52164 4950.534504
0.055000 0.055280 22887.262918 78.401893 -1508.930678 57.801529 -3019.401743 77396 4950.534504
0.065000 0.065232 20845.406644 282.951181 -968.769298 74.341374 -760.002861 108936 4950.534504
0.075000 0.075229 17833.432372 244.605787 -1347.708518 -138.629769 -532.457831 144980 4950.534504
0.085000 0.085193 14699.881833 225.008293 -1185.078112 106.843267 1879.068282 184854 4950.534504
0.095000 0.095166 12032.802049 222.496951 -2738.481741 -171.554575 546.368694 232260 4950.534504
0.105000 0.105155 10161.191502 90.102342 -1499.250275 70.434852 656.097686 282884 4950.534504
0.115000 0.115131 9067.767573 116.197579 -445.520904 -118.498074 -283.867015 339084 4950.534504
0.125000 0.125124 8054.079284 58.209559 -1170.839536 17.111076 216.745436 401864 4950.534504
0.135000 0.135125 7582.422472 87.114633 -1179.432636 -21.910629 -351.136675 468084 4950.534504
0.145000 0.145120 6901.429990 80.734603 -791.588643 -54.488928 280.274888 539940 4950.534504
0.155000 0.155118 5871.653365 90.751134 -433.850650 12.605284 163.310497 617324 4950.534504
0.165000 0.165105 5373.989716 65.061793 -171.184317 -22.530898 -165.025829 697452 4950.534504
0.175000 0.175088 4844.241872 70.856578 -447.758896 -13.194712 178.236122 785846 4950.534504
0.185000 0.185089 4531.584933 34.673048 -683.687372 14.466126 -44.950905 879528 4950.534504
0.195000 0.195093 4255.980561 63.051317 -608.779253 -19.906720 61.899187 976596 4950.534504
0.205000 0.205084 3910.506555 43.668382 -591.321082 19.126384 339.255332 1077212 4950.534504
0.215000 0.215076 3632.889965 61.689922 -697.319437 6.968231 4.440343 1186908 4950.534504
0.225000 0.225076 3191.155161 50.423517 -738.272738 -15.549315 242.541334 1299452 4950.534504
0.235000 0.235073 3045.340503 57.079783 -685.955883 -27.416341 93.619536 1417356 4950.534504
0.245000 0.245067 2779.322887 41.361464 -668.738533 8.263924 372.287488 1539600 4950.534504
0.255000 0.255064 2618.585560 46.105294 -671.268666 -11.617794 9.607326 1669820 4950.534504
0.265000 0.265061 2448.210324 51.823191 -636.104832 1.942643 180.271421 1801086 4950.534504
0.275000 0.275060 2237.572887 43.375635 -625.563930 -7.231874 255.780227 1942244 4950.534504
0.285000 0.285062 2070.382621 57.203048 -563.965976 -33.195792 96.359676 2084796 4950.534504
0.295000 0.295057 1909.562244 38.374302 -538.727836 34.929377 260.482436 2231868 4950.534504
