#Data file /home/DATA/sbrieden/Patchy_dr12_mocks/postrecon/original/Patchy-Mocks-DR12LOWZ-S-V5C-Portsmouth-mass_f0693b1850s10_0063.dat
#Random file /home/DATA/sbrieden/Patchy_dr12_mocks/postrecon/original/Patchy-Mocks-DR12LOWZ-S-V5C-Portsmouth-mass_f0693b1850s10_0063.ran
#Number of data elements used: 100258
#Number of random elements used: 2006204
#Effective number of data elements weighted by wcol: 100258.000000
#Effective number of random elements weighted by wcol: 2006204.000000
#Effective number of data elements weighted by wcol*wsys: 100258.000000
#Effective number of random elements weighted by wcol*wsys: 2006204.000000
#Effective redshift value from data 0.329801
#Effective redshift value from randoms 0.330193
#Size of the Box 2500.000000 Mpc/h
#Area of the survey used 2501.000000 deg^2
#Value of alpha: 0.049906
#Normalization using data file
#Normalization using density
#Normalization 1.856476
#Shot noise factor 1.000000
#Shot noise value 3645.570363
#Type of Computation: FFT
#Number of grid cells: 512
#Type of Mass Assigment: TSC
#Type of Yamamoto: GridCenter
#Number of Interlacing steps: 2
#Grid Correction: yes
#Value of Om=0.310000
#Quadrupole as L2
#Octopole as L3
#Hexadecapole as L2L2
#k-centerbin	 k-eff	 Monopole-Pshotnoise	 Dipole	 Quadrupole	 Octopole	 Hexadecapole	 number of modes	 Pshotnoise
0.005000 0.007385 36894.208484 -7941.169304 -17034.531080 -7921.046710 17477.207826 250 3645.570363
0.015000 0.016012 64532.437635 1551.176866 6215.676220 -7932.775209 -31842.783702 1852 3645.570363
0.025000 0.025646 49927.104559 1346.672615 -16790.861796 -3045.694875 -20093.002414 5020 3645.570363
0.035000 0.035469 36329.429325 235.157308 -14102.899529 -2043.490914 -9176.312502 9756 3645.570363
0.045000 0.045368 29525.407253 1125.126260 51.066086 -368.872122 -1879.786378 16108 3645.570363
0.055000 0.055314 26262.427641 661.783427 -2460.849474 -448.650814 5228.392578 24064 3645.570363
0.065000 0.065258 23070.819212 230.859528 -444.708214 123.647406 2559.269099 33396 3645.570363
0.075000 0.075209 19737.463350 319.896565 -1015.370742 -314.359108 -255.200755 44596 3645.570363
0.085000 0.085175 16032.593713 434.762492 -188.822350 35.286080 -3538.801931 57124 3645.570363
0.095000 0.095157 13769.817894 240.702181 -2203.629939 86.382116 -482.673297 71620 3645.570363
0.105000 0.105162 11833.554276 231.786222 -844.481133 -57.953714 -729.506542 87552 3645.570363
0.115000 0.115148 10465.419775 209.936723 -653.468832 -186.320565 -752.180316 104524 3645.570363
0.125000 0.125146 9405.690835 131.939411 -212.274651 17.341993 277.818437 124228 3645.570363
0.135000 0.135146 8442.578539 98.531125 -387.434577 47.617645 90.788725 144204 3645.570363
0.145000 0.145132 7113.358356 210.337414 -347.957245 -37.672227 194.368889 166492 3645.570363
0.155000 0.155114 6320.644974 113.012111 -1224.130965 16.032794 3.422078 189964 3645.570363
0.165000 0.165102 5611.926561 72.582224 -602.687280 -13.372789 129.162384 215640 3645.570363
0.175000 0.175105 5134.652631 77.758517 -841.282895 -41.197057 -188.012064 242836 3645.570363
0.185000 0.185097 4721.096964 52.318317 -538.495926 6.101145 398.233528 270556 3645.570363
0.195000 0.195085 4423.375670 59.945035 -827.868230 83.596713 93.288113 301084 3645.570363
0.205000 0.205080 3868.118795 61.684631 -657.545363 -122.308961 657.091956 332628 3645.570363
0.215000 0.215092 3750.755772 49.764026 -775.881590 46.610803 474.942260 367216 3645.570363
0.225000 0.225099 3393.686511 71.136405 -608.247423 -38.407102 138.108888 400444 3645.570363
0.235000 0.235081 3129.446139 40.618183 -724.508858 33.356680 -14.614423 436500 3645.570363
0.245000 0.245077 2889.931464 55.887840 -862.129272 20.600833 561.701270 475900 3645.570363
0.255000 0.255082 2633.085714 30.260338 -743.852909 -38.087778 349.679362 514900 3645.570363
0.265000 0.265074 2511.341423 55.513150 -967.554087 -13.507210 -93.792858 555408 3645.570363
0.275000 0.275066 2246.828844 45.289534 -872.705099 1.359476 355.506251 598684 3645.570363
0.285000 0.285066 2082.326536 30.432171 -675.884543 -15.945868 250.003783 643228 3645.570363
0.295000 0.295058 2001.908035 44.484034 -845.719980 -19.586216 143.384729 688036 3645.570363
