#Data file /home/DATA/sbrieden/Patchy_dr12_mocks/postrecon/original/Patchy-Mocks-DR12CMASS-S-V6C-Portsmouth-mass_f0784b1850s10_0057.dat
#Random file /home/DATA/sbrieden/Patchy_dr12_mocks/postrecon/original/Patchy-Mocks-DR12CMASS-S-V6C-Portsmouth-mass_f0784b1850s10_0057.ran
#Number of data elements used: 215932
#Number of random elements used: 4288186
#Effective number of data elements weighted by wcol: 215932.000000
#Effective number of random elements weighted by wcol: 4288186.000000
#Effective number of data elements weighted by wcol*wsys: 215932.000000
#Effective number of random elements weighted by wcol*wsys: 4288186.000000
#Effective redshift value from data 0.596712
#Effective redshift value from randoms 0.597108
#Size of the Box 3700.000000 Mpc/h
#Area of the survey used 2525.000000 deg^2
#Value of alpha: 0.050251
#Normalization using data file
#Normalization using density
#Normalization 4.095391
#Shot noise factor 1.000000
#Shot noise value 4918.894572
#Type of Computation: FFT
#Number of grid cells: 512
#Type of Mass Assigment: TSC
#Type of Yamamoto: GridCenter
#Number of Interlacing steps: 2
#Grid Correction: yes
#Value of Om=0.310000
#Quadrupole as L2
#Octopole as L3
#Hexadecapole as L2L2
#k-centerbin	 k-eff	 Monopole-Pshotnoise	 Dipole	 Quadrupole	 Octopole	 Hexadecapole	 number of modes	 Pshotnoise
0.005000 0.007485 51778.137240 -462.033530 -19130.287612 -16214.220408 -28145.950440 846 4918.894572
0.015000 0.016072 40736.429978 263.090453 6277.062640 1728.499513 -8951.643177 6012 4918.894572
0.025000 0.025646 45394.092296 -98.329890 -11474.670518 -1646.457187 -4059.395665 16172 4918.894572
0.035000 0.035469 36580.421824 1021.556379 -4133.869627 -573.166619 915.873932 31764 4918.894572
0.045000 0.045378 26639.994109 219.210288 -822.817198 1281.618286 8161.433244 52164 4918.894572
0.055000 0.055280 23135.656461 343.701003 -3810.727481 -1243.293533 135.979094 77396 4918.894572
0.065000 0.065232 21225.301122 154.661201 -2967.471466 79.539136 -1794.014227 108936 4918.894572
0.075000 0.075229 17443.178775 261.660809 -569.801149 -10.034111 -376.348402 144980 4918.894572
0.085000 0.085193 14944.365780 261.432443 -1241.638666 126.820398 1177.663060 184854 4918.894572
0.095000 0.095166 12177.585679 157.329554 -1544.276783 -156.152783 -291.923998 232260 4918.894572
0.105000 0.105155 10057.811786 148.962274 -1903.498242 -9.674946 498.139822 282884 4918.894572
0.115000 0.115131 9294.259700 41.247619 -1538.925208 10.342393 -909.267662 339084 4918.894572
0.125000 0.125124 8545.898007 50.588043 -1408.726707 109.498833 201.352360 401864 4918.894572
0.135000 0.135125 7791.132029 142.062560 -1158.760711 -239.420607 -118.816746 468084 4918.894572
0.145000 0.145120 7078.765649 38.447183 -1238.365757 37.935210 -191.220862 539940 4918.894572
0.155000 0.155118 6158.529322 121.141220 -552.988067 -57.791395 48.032966 617324 4918.894572
0.165000 0.165105 5437.982685 74.336781 -686.122543 -11.028399 216.546252 697452 4918.894572
0.175000 0.175088 4989.055963 38.632817 -515.347122 48.092358 201.751565 785846 4918.894572
0.185000 0.185089 4730.853696 58.449210 -793.682053 -19.495623 502.614418 879528 4918.894572
0.195000 0.195093 4435.731656 58.961556 -865.698170 -40.945189 67.172360 976596 4918.894572
0.205000 0.205084 3913.329667 74.243540 -558.128626 -13.529219 -32.993648 1077212 4918.894572
0.215000 0.215076 3530.679483 46.842601 -595.057525 8.566443 99.269682 1186908 4918.894572
0.225000 0.225076 3141.596879 47.384949 -761.988013 31.890815 103.556102 1299452 4918.894572
0.235000 0.235073 2944.732784 57.617831 -541.450459 -50.608755 614.791608 1417356 4918.894572
0.245000 0.245067 2887.698549 35.934684 -699.889975 -0.166783 168.798270 1539600 4918.894572
0.255000 0.255064 2679.148957 49.723894 -607.068347 -1.415329 160.974038 1669820 4918.894572
0.265000 0.265061 2486.381467 52.884015 -760.194643 28.814959 298.251872 1801086 4918.894572
0.275000 0.275060 2187.248277 42.172294 -642.337295 -14.589001 401.299989 1942244 4918.894572
0.285000 0.285062 2060.700057 50.733650 -703.529180 -46.654309 85.627929 2084796 4918.894572
0.295000 0.295057 1963.772160 51.915674 -526.710172 -2.592061 158.783334 2231868 4918.894572
