#Data file /home/DATA/sbrieden/Patchy_dr12_mocks/postrecon/original/Patchy-Mocks-DR12LOWZ-N-V5C-Portsmouth-mass_f0693b1850s10_0069.dat
#Random file /home/DATA/sbrieden/Patchy_dr12_mocks/postrecon/original/Patchy-Mocks-DR12LOWZ-N-V5C-Portsmouth-mass_f0693b1850s10_0069.ran
#Number of data elements used: 234157
#Number of random elements used: 4678624
#Effective number of data elements weighted by wcol: 234157.000000
#Effective number of random elements weighted by wcol: 4678624.000000
#Effective number of data elements weighted by wcol*wsys: 234157.000000
#Effective number of random elements weighted by wcol*wsys: 4678624.000000
#Effective redshift value from data 0.330434
#Effective redshift value from randoms 0.329777
#Size of the Box 2500.000000 Mpc/h
#Area of the survey used 5826.000000 deg^2
#Value of alpha: 0.050172
#Normalization using data file
#Normalization using density
#Normalization 4.346050
#Shot noise factor 1.000000
#Shot noise value 3668.916624
#Type of Computation: FFT
#Number of grid cells: 512
#Type of Mass Assigment: TSC
#Type of Yamamoto: GridCenter
#Number of Interlacing steps: 2
#Grid Correction: yes
#Value of Om=0.310000
#Quadrupole as L2
#Octopole as L3
#Hexadecapole as L2L2
#k-centerbin	 k-eff	 Monopole-Pshotnoise	 Dipole	 Quadrupole	 Octopole	 Hexadecapole	 number of modes	 Pshotnoise
0.005000 0.007385 50327.033533 -3832.236538 -36579.238131 -19653.002433 -20197.697211 250 3668.916624
0.015000 0.016012 48856.559256 -2137.555996 -229.082270 -8399.427150 -15371.343145 1852 3668.916624
0.025000 0.025646 45553.893873 2157.548917 2739.732576 -106.329947 -17539.792418 5020 3668.916624
0.035000 0.035469 37658.090729 499.058780 1006.831708 -346.899306 -7902.315592 9756 3668.916624
0.045000 0.045368 30814.233783 612.966035 -866.572312 -276.574956 -1388.321758 16108 3668.916624
0.055000 0.055314 25359.305504 503.418116 -2946.691748 628.675847 34.875168 24064 3668.916624
0.065000 0.065258 22477.820443 462.570716 -2182.347523 -549.467451 -864.678215 33396 3668.916624
0.075000 0.075209 19663.934081 242.714313 -1602.643255 428.644071 1211.927823 44596 3668.916624
0.085000 0.085175 16071.144778 525.124564 -2259.312056 -664.297052 1495.468215 57124 3668.916624
0.095000 0.095157 13892.020983 258.574314 -421.383997 403.138030 2063.404904 71620 3668.916624
0.105000 0.105162 11149.873261 201.109512 -1634.763596 -205.763909 499.440052 87552 3668.916624
0.115000 0.115148 10330.792772 155.230595 -1100.084175 -37.284843 1114.394371 104524 3668.916624
0.125000 0.125146 9223.804790 105.784475 -464.017382 -22.552820 389.699012 124228 3668.916624
0.135000 0.135146 8248.709228 108.787687 -1251.171671 69.953710 603.925931 144204 3668.916624
0.145000 0.145132 7494.702596 168.238476 -727.257490 -194.024510 827.504030 166492 3668.916624
0.155000 0.155114 6556.821864 99.729573 -322.418958 26.628969 -128.612826 189964 3668.916624
0.165000 0.165102 5721.644453 100.074088 -441.966222 -29.133865 40.988590 215640 3668.916624
0.175000 0.175105 5174.840318 76.284525 -732.650858 30.645928 -342.142815 242836 3668.916624
0.185000 0.185097 4782.199337 41.315759 -643.531381 47.624447 153.002803 270556 3668.916624
0.195000 0.195085 4572.932171 74.217104 -626.999460 -29.266430 232.667435 301084 3668.916624
0.205000 0.205080 4130.369611 77.119099 -663.718970 -45.057860 -1.038375 332628 3668.916624
0.215000 0.215092 3725.308315 67.399999 -627.879524 7.737337 153.597773 367216 3668.916624
0.225000 0.225099 3336.411382 49.483842 -704.111122 35.610334 22.913280 400444 3668.916624
0.235000 0.235081 3066.871274 51.401619 -842.294646 -47.467337 107.554696 436500 3668.916624
0.245000 0.245077 2812.601310 57.193719 -692.195058 -42.655115 96.284680 475900 3668.916624
0.255000 0.255082 2605.331073 40.280684 -699.413571 56.806040 174.247258 514900 3668.916624
0.265000 0.265074 2448.306404 44.494810 -854.284065 -10.342377 268.619380 555408 3668.916624
0.275000 0.275066 2326.975321 35.672868 -901.219256 -11.505863 150.326226 598684 3668.916624
0.285000 0.285066 2176.234148 42.201890 -803.799559 -31.636714 362.824053 643228 3668.916624
0.295000 0.295058 2004.284300 39.326838 -737.932174 -6.996198 287.970722 688036 3668.916624
