#Data file /home/DATA/sbrieden/Patchy_dr12_mocks/postrecon/original/Patchy-Mocks-DR12LOWZ-N-V5C-Portsmouth-mass_f0693b1850s10_0056.dat
#Random file /home/DATA/sbrieden/Patchy_dr12_mocks/postrecon/original/Patchy-Mocks-DR12LOWZ-N-V5C-Portsmouth-mass_f0693b1850s10_0056.ran
#Number of data elements used: 233978
#Number of random elements used: 4676438
#Effective number of data elements weighted by wcol: 233978.000000
#Effective number of random elements weighted by wcol: 4676438.000000
#Effective number of data elements weighted by wcol*wsys: 233978.000000
#Effective number of random elements weighted by wcol*wsys: 4676438.000000
#Effective redshift value from data 0.330313
#Effective redshift value from randoms 0.329867
#Size of the Box 2500.000000 Mpc/h
#Area of the survey used 5826.000000 deg^2
#Value of alpha: 0.050048
#Normalization using data file
#Normalization using density
#Normalization 4.337554
#Shot noise factor 1.000000
#Shot noise value 3657.229580
#Type of Computation: FFT
#Number of grid cells: 512
#Type of Mass Assigment: TSC
#Type of Yamamoto: GridCenter
#Number of Interlacing steps: 2
#Grid Correction: yes
#Value of Om=0.310000
#Quadrupole as L2
#Octopole as L3
#Hexadecapole as L2L2
#k-centerbin	 k-eff	 Monopole-Pshotnoise	 Dipole	 Quadrupole	 Octopole	 Hexadecapole	 number of modes	 Pshotnoise
0.005000 0.007385 46185.103382 -6895.923466 -1247.722157 1858.917455 8469.123279 250 3657.229580
0.015000 0.016012 49645.442471 -222.068315 -11389.950022 3309.997790 -4676.086355 1852 3657.229580
0.025000 0.025646 47914.437883 1277.629657 -9510.816209 -1281.579839 -5409.228068 5020 3657.229580
0.035000 0.035469 37312.249531 883.487494 4125.960331 -1574.841589 6871.622599 9756 3657.229580
0.045000 0.045368 31589.907298 609.112687 -665.926535 1526.797037 3876.396010 16108 3657.229580
0.055000 0.055314 26397.713304 479.083705 -4071.136706 486.442722 3851.495449 24064 3657.229580
0.065000 0.065258 22302.667417 332.018895 -2645.921407 -500.194053 811.724956 33396 3657.229580
0.075000 0.075209 19102.317330 524.477481 -2943.050874 -241.782496 670.917809 44596 3657.229580
0.085000 0.085175 15833.369318 293.782327 -1437.634946 -103.836115 -1747.652672 57124 3657.229580
0.095000 0.095157 13943.890764 261.841198 -2279.555007 99.271232 -1380.133627 71620 3657.229580
0.105000 0.105162 11601.593756 244.956035 -1477.495214 -342.768297 1686.198765 87552 3657.229580
0.115000 0.115148 10558.498121 133.037681 -1125.479169 95.848928 646.414840 104524 3657.229580
0.125000 0.125146 9521.196784 178.021824 -686.255151 -125.770028 -197.090421 124228 3657.229580
0.135000 0.135146 8705.390293 117.270474 -844.083935 108.630418 575.716409 144204 3657.229580
0.145000 0.145132 7278.133816 211.132603 -839.524245 -109.170159 693.269723 166492 3657.229580
0.155000 0.155114 6319.045277 57.229527 -465.557049 -84.056778 -262.272666 189964 3657.229580
0.165000 0.165102 6069.947236 72.374955 -624.926171 49.041778 108.818764 215640 3657.229580
0.175000 0.175105 5460.320824 83.687559 -727.855452 -9.931115 9.407714 242836 3657.229580
0.185000 0.185097 4993.458946 89.764750 -405.685526 -51.547214 24.483203 270556 3657.229580
0.195000 0.195085 4439.916432 25.540783 -683.828972 33.752554 -157.980985 301084 3657.229580
0.205000 0.205080 4036.323559 107.922208 -787.936919 -33.858035 -97.316789 332628 3657.229580
0.215000 0.215092 3651.371545 49.858901 -703.891280 47.561842 11.327635 367216 3657.229580
0.225000 0.225099 3304.350122 71.600280 -719.903345 -26.985378 365.020982 400444 3657.229580
0.235000 0.235081 3073.231385 46.188585 -718.824091 -47.607750 271.293130 436500 3657.229580
0.245000 0.245077 2859.150917 26.330328 -636.826245 48.382608 303.206934 475900 3657.229580
0.255000 0.255082 2758.805847 41.810081 -751.340780 -2.818507 327.286671 514900 3657.229580
0.265000 0.265074 2480.022765 58.496742 -737.356855 -61.541911 286.131781 555408 3657.229580
0.275000 0.275066 2263.391721 43.099122 -665.153972 38.928085 196.799814 598684 3657.229580
0.285000 0.285066 2105.408961 30.502547 -883.380549 -5.301746 259.693386 643228 3657.229580
0.295000 0.295058 2066.235421 34.319296 -791.620056 -3.063898 147.821597 688036 3657.229580
