#Data file /home/DATA/sbrieden/Patchy_dr12_mocks/postrecon/original/Patchy-Mocks-DR12CMASS-S-V6C-Portsmouth-mass_f0784b1850s10_0074.dat
#Random file /home/DATA/sbrieden/Patchy_dr12_mocks/postrecon/original/Patchy-Mocks-DR12CMASS-S-V6C-Portsmouth-mass_f0784b1850s10_0074.ran
#Number of data elements used: 215486
#Number of random elements used: 4289248
#Effective number of data elements weighted by wcol: 215486.000000
#Effective number of random elements weighted by wcol: 4289248.000000
#Effective number of data elements weighted by wcol*wsys: 215486.000000
#Effective number of random elements weighted by wcol*wsys: 4289248.000000
#Effective redshift value from data 0.596989
#Effective redshift value from randoms 0.596841
#Size of the Box 3700.000000 Mpc/h
#Area of the survey used 2525.000000 deg^2
#Value of alpha: 0.050338
#Normalization using data file
#Normalization using density
#Normalization 4.095190
#Shot noise factor 1.000000
#Shot noise value 4954.467737
#Type of Computation: FFT
#Number of grid cells: 512
#Type of Mass Assigment: TSC
#Type of Yamamoto: GridCenter
#Number of Interlacing steps: 2
#Grid Correction: yes
#Value of Om=0.310000
#Quadrupole as L2
#Octopole as L3
#Hexadecapole as L2L2
#k-centerbin	 k-eff	 Monopole-Pshotnoise	 Dipole	 Quadrupole	 Octopole	 Hexadecapole	 number of modes	 Pshotnoise
0.005000 0.007485 42366.797011 420.622462 -12864.169237 -12599.290452 -19812.530534 846 4954.467737
0.015000 0.016072 40248.240223 -739.388351 -629.313277 1103.932002 374.458010 6012 4954.467737
0.025000 0.025646 42947.612259 897.377491 1196.018221 733.496358 16855.492173 16172 4954.467737
0.035000 0.035469 33694.795785 242.528090 2417.795321 1144.768417 3098.333992 31764 4954.467737
0.045000 0.045378 26387.465813 582.548831 -353.730734 -724.209745 -544.297502 52164 4954.467737
0.055000 0.055280 23353.827684 -68.799400 -3977.351358 371.641131 -857.443492 77396 4954.467737
0.065000 0.065232 20143.945391 389.528034 -3054.819239 -432.454013 -1731.582878 108936 4954.467737
0.075000 0.075229 17547.856959 178.648997 -3414.383790 -46.101498 -138.613036 144980 4954.467737
0.085000 0.085193 14929.519940 221.696515 -2041.443566 -79.375939 -1318.100651 184854 4954.467737
0.095000 0.095166 11960.926655 276.778072 -2392.445399 -218.603456 -631.218209 232260 4954.467737
0.105000 0.105155 10009.155639 22.787974 -1694.124260 134.657281 95.038234 282884 4954.467737
0.115000 0.115131 9221.263342 106.669843 -979.684587 -85.395532 -130.976883 339084 4954.467737
0.125000 0.125124 8605.164154 65.858588 -859.628534 -180.766481 -326.031242 401864 4954.467737
0.135000 0.135125 8079.428726 70.898942 -672.444139 101.431543 -1153.188709 468084 4954.467737
0.145000 0.145120 7053.967675 87.882235 -946.536078 -16.410662 -49.970439 539940 4954.467737
0.155000 0.155118 6303.573200 97.442625 -861.421456 -49.187335 -645.923238 617324 4954.467737
0.165000 0.165105 5513.120966 74.071817 -520.607716 34.005463 -244.466158 697452 4954.467737
0.175000 0.175088 5007.407978 45.826048 -956.388647 12.878265 -145.857887 785846 4954.467737
0.185000 0.185089 4722.020865 68.166016 -1203.944566 -29.735827 423.191611 879528 4954.467737
0.195000 0.195093 4372.464658 67.056595 -918.520543 -38.191749 -123.293358 976596 4954.467737
0.205000 0.205084 3797.625567 68.339664 -625.200022 -16.768687 -27.206867 1077212 4954.467737
0.215000 0.215076 3634.868889 38.692476 -425.277093 -11.788107 408.758563 1186908 4954.467737
0.225000 0.225076 3341.667564 51.111634 -872.341298 17.964168 -12.321961 1299452 4954.467737
0.235000 0.235073 2940.651652 49.894593 -899.360069 18.813536 248.664066 1417356 4954.467737
0.245000 0.245067 2810.759681 43.940768 -905.119271 -36.347692 60.129171 1539600 4954.467737
0.255000 0.255064 2662.517557 53.763104 -612.622393 -36.904796 269.152565 1669820 4954.467737
0.265000 0.265061 2541.566579 36.866048 -700.425243 24.769495 135.514915 1801086 4954.467737
0.275000 0.275060 2299.281991 56.842994 -859.920922 -1.334535 84.061842 1942244 4954.467737
0.285000 0.285062 2093.375529 55.696933 -726.208162 -42.508607 366.674541 2084796 4954.467737
0.295000 0.295057 1971.303420 35.986623 -685.398921 35.332122 285.888086 2231868 4954.467737
