#Data file /home/DATA/sbrieden/Patchy_dr12_mocks/postrecon/original/Patchy-Mocks-DR12LOWZ-S-V5C-Portsmouth-mass_f0693b1850s10_0010.dat
#Random file /home/DATA/sbrieden/Patchy_dr12_mocks/postrecon/original/Patchy-Mocks-DR12LOWZ-S-V5C-Portsmouth-mass_f0693b1850s10_0010.ran
#Number of data elements used: 101067
#Number of random elements used: 2003126
#Effective number of data elements weighted by wcol: 101067.000000
#Effective number of random elements weighted by wcol: 2003126.000000
#Effective number of data elements weighted by wcol*wsys: 101067.000000
#Effective number of random elements weighted by wcol*wsys: 2003126.000000
#Effective redshift value from data 0.329812
#Effective redshift value from randoms 0.330359
#Size of the Box 2500.000000 Mpc/h
#Area of the survey used 2501.000000 deg^2
#Value of alpha: 0.050373
#Normalization using data file
#Normalization using density
#Normalization 1.872191
#Shot noise factor 1.000000
#Shot noise value 3652.002448
#Type of Computation: FFT
#Number of grid cells: 512
#Type of Mass Assigment: TSC
#Type of Yamamoto: GridCenter
#Number of Interlacing steps: 2
#Grid Correction: yes
#Value of Om=0.310000
#Quadrupole as L2
#Octopole as L3
#Hexadecapole as L2L2
#k-centerbin	 k-eff	 Monopole-Pshotnoise	 Dipole	 Quadrupole	 Octopole	 Hexadecapole	 number of modes	 Pshotnoise
0.005000 0.007385 61757.855448 9269.544874 -10645.522457 -20152.148420 -36308.650733 250 3652.002448
0.015000 0.016012 48397.586847 -4224.207950 -2623.569869 -8481.364388 -22198.439712 1852 3652.002448
0.025000 0.025646 57922.755466 1958.085142 -4081.137487 4891.678936 11909.930911 5020 3652.002448
0.035000 0.035469 41928.387449 855.545781 -2890.868531 -2614.627777 7452.458203 9756 3652.002448
0.045000 0.045368 30931.307715 1494.362600 -5728.956476 -2.902647 5516.873194 16108 3652.002448
0.055000 0.055314 26244.661720 -7.178280 -8419.536260 48.176570 -1071.457333 24064 3652.002448
0.065000 0.065258 22496.531994 824.254064 -1863.341852 -844.868907 -713.046178 33396 3652.002448
0.075000 0.075209 19012.726489 315.684416 -2351.326158 -344.989936 -197.174396 44596 3652.002448
0.085000 0.085175 14822.737434 538.401322 -367.650753 -118.575771 -66.273460 57124 3652.002448
0.095000 0.095157 12559.115059 70.700000 -1228.488391 687.520178 744.954876 71620 3652.002448
0.105000 0.105162 11610.056957 62.741980 -2533.732528 -154.800926 952.626117 87552 3652.002448
0.115000 0.115148 9748.792945 336.857508 -1133.633889 -374.961796 1131.619668 104524 3652.002448
0.125000 0.125146 9207.397653 28.973622 -548.802180 45.542835 -289.376584 124228 3652.002448
0.135000 0.135146 8205.407069 161.394585 -989.738904 -34.231873 330.192200 144204 3652.002448
0.145000 0.145132 7446.923578 129.658602 -686.923608 -78.589221 20.280048 166492 3652.002448
0.155000 0.155114 6742.726336 75.524042 -1227.999541 76.393369 522.842994 189964 3652.002448
0.165000 0.165102 5996.629856 118.986973 -741.117425 -103.497233 -431.932111 215640 3652.002448
0.175000 0.175105 5472.443702 70.191242 -611.715479 120.382466 546.937536 242836 3652.002448
0.185000 0.185097 5023.916371 65.745243 -615.358940 -115.200148 122.503961 270556 3652.002448
0.195000 0.195085 4486.774770 83.697956 -1149.966590 -26.141288 -165.449186 301084 3652.002448
0.205000 0.205080 4154.784419 58.384659 -1015.970256 -24.839554 -174.361119 332628 3652.002448
0.215000 0.215092 3697.980117 76.819752 -785.270099 -5.869459 -110.479704 367216 3652.002448
0.225000 0.225099 3393.960781 52.616037 -800.682026 9.582711 473.663683 400444 3652.002448
0.235000 0.235081 3174.122597 33.455826 -738.859108 -3.734451 51.177940 436500 3652.002448
0.245000 0.245077 2915.787561 64.387642 -806.353067 -7.186786 520.786041 475900 3652.002448
0.255000 0.255082 2692.294722 30.650473 -632.731969 -42.817319 63.566206 514900 3652.002448
0.265000 0.265074 2467.679576 77.319753 -630.260065 -20.936130 38.857993 555408 3652.002448
0.275000 0.275066 2263.928762 20.274063 -702.834920 23.407914 101.210732 598684 3652.002448
0.285000 0.285066 2164.969286 43.555393 -718.508853 0.053246 435.461299 643228 3652.002448
0.295000 0.295058 1960.484384 32.391739 -903.259064 -6.668537 154.448870 688036 3652.002448
