#Data file /home/DATA/sbrieden/Patchy_dr12_mocks/postrecon/original/Patchy-Mocks-DR12CMASS-S-V6C-Portsmouth-mass_f0784b1850s10_0097.dat
#Random file /home/DATA/sbrieden/Patchy_dr12_mocks/postrecon/original/Patchy-Mocks-DR12CMASS-S-V6C-Portsmouth-mass_f0784b1850s10_0097.ran
#Number of data elements used: 214808
#Number of random elements used: 4280373
#Effective number of data elements weighted by wcol: 214808.000000
#Effective number of random elements weighted by wcol: 4280373.000000
#Effective number of data elements weighted by wcol*wsys: 214808.000000
#Effective number of random elements weighted by wcol*wsys: 4280373.000000
#Effective redshift value from data 0.597262
#Effective redshift value from randoms 0.596723
#Size of the Box 3700.000000 Mpc/h
#Area of the survey used 2525.000000 deg^2
#Value of alpha: 0.050472
#Normalization using data file
#Normalization using density
#Normalization 4.087583
#Shot noise factor 1.000000
#Shot noise value 4980.911859
#Type of Computation: FFT
#Number of grid cells: 512
#Type of Mass Assigment: TSC
#Type of Yamamoto: GridCenter
#Number of Interlacing steps: 2
#Grid Correction: yes
#Value of Om=0.310000
#Quadrupole as L2
#Octopole as L3
#Hexadecapole as L2L2
#k-centerbin	 k-eff	 Monopole-Pshotnoise	 Dipole	 Quadrupole	 Octopole	 Hexadecapole	 number of modes	 Pshotnoise
0.005000 0.007485 35032.907530 -2411.658276 5098.011340 -4722.464082 -13509.852139 846 4980.911859
0.015000 0.016072 56678.356777 -126.554078 -485.111671 2644.016205 6801.510419 6012 4980.911859
0.025000 0.025646 45187.541470 534.055475 -3720.138053 1363.012156 16019.668782 16172 4980.911859
0.035000 0.035469 33592.959844 796.781819 -5553.948122 -1279.650766 3136.883047 31764 4980.911859
0.045000 0.045378 27906.937954 427.692309 1894.036538 724.449190 6531.193620 52164 4980.911859
0.055000 0.055280 22137.238229 194.769157 -2187.278674 -123.174555 908.287888 77396 4980.911859
0.065000 0.065232 20467.878476 194.905468 -2310.654219 -247.767393 -1710.153231 108936 4980.911859
0.075000 0.075229 17077.377637 253.382773 -772.806757 66.589702 177.592749 144980 4980.911859
0.085000 0.085193 14417.067854 283.701441 -702.108570 -250.811254 1573.046635 184854 4980.911859
0.095000 0.095166 12144.247813 143.582000 -439.910527 260.330803 872.634959 232260 4980.911859
0.105000 0.105155 10237.765195 100.335152 -1157.956702 9.960395 907.337801 282884 4980.911859
0.115000 0.115131 9373.538000 56.548902 -1111.786285 26.517296 -235.984232 339084 4980.911859
0.125000 0.125124 8618.996701 94.283053 -1352.551874 -98.038429 374.506964 401864 4980.911859
0.135000 0.135125 7732.114041 107.992418 -1023.270475 -127.408358 -745.712757 468084 4980.911859
0.145000 0.145120 6748.922150 104.679376 -699.391925 52.729771 -287.199880 539940 4980.911859
0.155000 0.155118 5961.039389 80.666707 -799.390849 -33.716277 -33.200821 617324 4980.911859
0.165000 0.165105 5340.902235 50.318283 -605.119706 13.441299 -8.696445 697452 4980.911859
0.175000 0.175088 4913.629588 69.926367 -637.528126 -44.648957 -112.074513 785846 4980.911859
0.185000 0.185089 4637.469498 33.878099 -831.570403 -13.868596 -442.926205 879528 4980.911859
0.195000 0.195093 4322.429037 56.072302 -904.486181 90.772693 -65.620976 976596 4980.911859
0.205000 0.205084 3805.577112 55.856262 -1017.387142 -72.155921 -35.073927 1077212 4980.911859
0.215000 0.215076 3567.902403 57.935647 -816.236406 0.568728 -72.819665 1186908 4980.911859
0.225000 0.225076 3153.807345 59.040543 -582.886460 -12.267189 -30.572461 1299452 4980.911859
0.235000 0.235073 2982.284994 45.302653 -780.509660 -18.663614 73.692074 1417356 4980.911859
0.245000 0.245067 2797.437306 53.821573 -796.038811 -22.323256 139.041725 1539600 4980.911859
0.255000 0.255064 2607.502692 37.451073 -582.914775 23.133047 85.664674 1669820 4980.911859
0.265000 0.265061 2360.246101 59.193846 -735.945852 -35.582251 -42.638399 1801086 4980.911859
0.275000 0.275060 2233.568638 42.484440 -756.784562 19.516904 106.220391 1942244 4980.911859
0.285000 0.285062 2068.804164 53.187781 -906.468762 -24.636590 203.059831 2084796 4980.911859
0.295000 0.295057 1871.976050 34.552715 -739.047100 13.962002 196.625853 2231868 4980.911859
