#Data file /home/DATA/sbrieden/Patchy_dr12_mocks/postrecon/original/Patchy-Mocks-DR12LOWZ-S-V5C-Portsmouth-mass_f0693b1850s10_0032.dat
#Random file /home/DATA/sbrieden/Patchy_dr12_mocks/postrecon/original/Patchy-Mocks-DR12LOWZ-S-V5C-Portsmouth-mass_f0693b1850s10_0032.ran
#Number of data elements used: 98732
#Number of random elements used: 2006093
#Effective number of data elements weighted by wcol: 98732.000000
#Effective number of random elements weighted by wcol: 2006093.000000
#Effective number of data elements weighted by wcol*wsys: 98732.000000
#Effective number of random elements weighted by wcol*wsys: 2006093.000000
#Effective redshift value from data 0.329595
#Effective redshift value from randoms 0.330266
#Size of the Box 2500.000000 Mpc/h
#Area of the survey used 2501.000000 deg^2
#Value of alpha: 0.049128
#Normalization using data file
#Normalization using density
#Normalization 1.827626
#Shot noise factor 1.000000
#Shot noise value 3642.626730
#Type of Computation: FFT
#Number of grid cells: 512
#Type of Mass Assigment: TSC
#Type of Yamamoto: GridCenter
#Number of Interlacing steps: 2
#Grid Correction: yes
#Value of Om=0.310000
#Quadrupole as L2
#Octopole as L3
#Hexadecapole as L2L2
#k-centerbin	 k-eff	 Monopole-Pshotnoise	 Dipole	 Quadrupole	 Octopole	 Hexadecapole	 number of modes	 Pshotnoise
0.005000 0.007385 52084.629737 -8928.463212 -20429.204229 -13543.512675 -13099.401289 250 3642.626730
0.015000 0.016012 64500.166555 4364.959498 -10625.883389 -14879.303065 -36485.989155 1852 3642.626730
0.025000 0.025646 45020.138302 -80.082645 -335.587337 -423.578569 -10582.105969 5020 3642.626730
0.035000 0.035469 36016.700779 1453.816119 -4230.453522 -301.976653 -11779.992089 9756 3642.626730
0.045000 0.045368 29363.288957 -185.382500 -8198.475361 863.128303 11747.215244 16108 3642.626730
0.055000 0.055314 26775.879864 590.147157 -1669.887993 721.008564 9501.900119 24064 3642.626730
0.065000 0.065258 22807.509546 499.424041 -1823.060501 -770.051127 3208.195111 33396 3642.626730
0.075000 0.075209 19401.822996 320.590729 -2137.130965 -3.636719 -263.890402 44596 3642.626730
0.085000 0.085175 15987.392129 560.449551 520.670547 -163.859553 1837.175504 57124 3642.626730
0.095000 0.095157 12928.106457 188.816454 -625.525548 180.962769 -901.951463 71620 3642.626730
0.105000 0.105162 11044.606940 316.936884 -2646.093368 -135.264467 1885.520078 87552 3642.626730
0.115000 0.115148 9695.388791 146.577041 -817.143437 -249.243242 465.860877 104524 3642.626730
0.125000 0.125146 8904.997840 76.499355 486.954375 -8.251016 -282.952224 124228 3642.626730
0.135000 0.135146 8137.889127 113.446087 -251.254363 174.359815 -595.720132 144204 3642.626730
0.145000 0.145132 7237.106620 149.865369 -789.649475 -35.957981 -120.285409 166492 3642.626730
0.155000 0.155114 6333.939545 82.135430 -676.632745 53.432837 413.728253 189964 3642.626730
0.165000 0.165102 5695.652526 115.485685 -634.456453 44.860373 1314.307908 215640 3642.626730
0.175000 0.175105 5451.438300 44.574660 -649.305986 -162.555323 -294.391930 242836 3642.626730
0.185000 0.185097 4975.942918 92.798111 -580.450457 53.091758 -112.878924 270556 3642.626730
0.195000 0.195085 4398.698566 48.191575 -807.451056 5.311749 318.486562 301084 3642.626730
0.205000 0.205080 4018.667292 76.813848 -684.056079 7.593564 398.174401 332628 3642.626730
0.215000 0.215092 3708.965747 50.951912 -872.789144 37.415496 234.875045 367216 3642.626730
0.225000 0.225099 3396.073549 40.883872 -1015.298973 17.347047 337.721365 400444 3642.626730
0.235000 0.235081 3154.201026 59.152018 -1082.512944 -91.607768 290.311887 436500 3642.626730
0.245000 0.245077 2806.878727 76.654765 -807.908557 -24.631888 57.591813 475900 3642.626730
0.255000 0.255082 2698.682903 29.653619 -777.348180 -29.974785 79.378409 514900 3642.626730
0.265000 0.265074 2468.135132 32.222433 -774.746482 70.209479 99.223336 555408 3642.626730
0.275000 0.275066 2300.124020 47.341058 -862.629959 -15.160586 297.317522 598684 3642.626730
0.285000 0.285066 2131.395901 36.639871 -773.219277 -22.655124 375.572822 643228 3642.626730
0.295000 0.295058 2066.146987 37.953343 -891.926310 -1.799999 481.086595 688036 3642.626730
