#Data file /home/DATA/sbrieden/Patchy_dr12_mocks/postrecon/original/Patchy-Mocks-DR12LOWZ-N-V5C-Portsmouth-mass_f0693b1850s10_0064.dat
#Random file /home/DATA/sbrieden/Patchy_dr12_mocks/postrecon/original/Patchy-Mocks-DR12LOWZ-N-V5C-Portsmouth-mass_f0693b1850s10_0064.ran
#Number of data elements used: 234725
#Number of random elements used: 4677402
#Effective number of data elements weighted by wcol: 234725.000000
#Effective number of random elements weighted by wcol: 4677402.000000
#Effective number of data elements weighted by wcol*wsys: 234725.000000
#Effective number of random elements weighted by wcol*wsys: 4677402.000000
#Effective redshift value from data 0.330448
#Effective redshift value from randoms 0.329800
#Size of the Box 2500.000000 Mpc/h
#Area of the survey used 5826.000000 deg^2
#Value of alpha: 0.050268
#Normalization using data file
#Normalization using density
#Normalization 4.355286
#Shot noise factor 1.000000
#Shot noise value 3660.053894
#Type of Computation: FFT
#Number of grid cells: 512
#Type of Mass Assigment: TSC
#Type of Yamamoto: GridCenter
#Number of Interlacing steps: 2
#Grid Correction: yes
#Value of Om=0.310000
#Quadrupole as L2
#Octopole as L3
#Hexadecapole as L2L2
#k-centerbin	 k-eff	 Monopole-Pshotnoise	 Dipole	 Quadrupole	 Octopole	 Hexadecapole	 number of modes	 Pshotnoise
0.005000 0.007385 40154.437081 -1750.759701 5845.577945 793.851944 119.978847 250 3660.053894
0.015000 0.016012 45485.209459 1030.998491 5503.230673 2973.208695 2114.550639 1852 3660.053894
0.025000 0.025646 47087.985774 1762.821757 -2902.592253 -5051.673989 -18494.547003 5020 3660.053894
0.035000 0.035469 38516.285518 446.178559 -6106.509324 1289.500777 -303.954663 9756 3660.053894
0.045000 0.045368 31338.700636 691.148493 -2712.343086 -575.815580 3180.067302 16108 3660.053894
0.055000 0.055314 25995.466459 267.295276 -5993.742477 -151.282803 -234.274831 24064 3660.053894
0.065000 0.065258 23620.426601 389.022097 -5490.573176 -390.226185 -1094.720910 33396 3660.053894
0.075000 0.075209 19752.844220 428.207902 -49.776799 -276.973381 1210.254247 44596 3660.053894
0.085000 0.085175 15923.180296 466.543098 -1122.815074 -157.681953 -880.275977 57124 3660.053894
0.095000 0.095157 13319.842024 335.035390 -1224.865680 60.100142 -959.558556 71620 3660.053894
0.105000 0.105162 11372.983569 145.800025 -1034.342584 -168.648207 -1143.373206 87552 3660.053894
0.115000 0.115148 10489.882907 206.995612 -504.035767 -123.920704 -999.118840 104524 3660.053894
0.125000 0.125146 9608.745286 51.501694 -876.005307 188.300942 220.918437 124228 3660.053894
0.135000 0.135146 8396.014630 134.851699 -739.945459 -35.516926 0.454589 144204 3660.053894
0.145000 0.145132 7446.247211 164.960741 -248.730233 -35.843874 560.458360 166492 3660.053894
0.155000 0.155114 6460.948569 108.774711 -809.342111 28.499180 210.141430 189964 3660.053894
0.165000 0.165102 5731.806926 97.395545 -626.845116 24.299260 522.364949 215640 3660.053894
0.175000 0.175105 5193.145029 91.770154 -540.271391 -162.266976 60.426710 242836 3660.053894
0.185000 0.185097 4847.690768 54.640424 -386.501074 82.358570 33.096925 270556 3660.053894
0.195000 0.195085 4510.669725 55.761041 -548.860492 -29.850778 -66.237511 301084 3660.053894
0.205000 0.205080 4039.201585 75.930133 -700.342429 40.063935 71.389783 332628 3660.053894
0.215000 0.215092 3689.753875 37.663032 -774.555463 35.132550 -58.806284 367216 3660.053894
0.225000 0.225099 3399.201627 75.037294 -771.821197 -94.022247 0.994570 400444 3660.053894
0.235000 0.235081 3111.577489 38.097960 -566.425064 59.262662 448.464655 436500 3660.053894
0.245000 0.245077 2908.657755 67.215170 -628.325259 -35.410228 235.935978 475900 3660.053894
0.255000 0.255082 2618.409302 35.005330 -687.288166 0.832805 136.742844 514900 3660.053894
0.265000 0.265074 2460.593415 45.252244 -764.559061 -11.647353 111.406949 555408 3660.053894
0.275000 0.275066 2287.103899 43.688170 -674.248967 -0.685365 293.553096 598684 3660.053894
0.285000 0.285066 2116.296141 44.098784 -733.411506 -6.446507 260.304616 643228 3660.053894
0.295000 0.295058 1979.241297 25.383251 -782.024653 25.771064 67.202330 688036 3660.053894
