#Data file /home/DATA/sbrieden/Patchy_dr12_mocks/postrecon/original/Patchy-Mocks-DR12LOWZ-N-V5C-Portsmouth-mass_f0693b1850s10_0022.dat
#Random file /home/DATA/sbrieden/Patchy_dr12_mocks/postrecon/original/Patchy-Mocks-DR12LOWZ-N-V5C-Portsmouth-mass_f0693b1850s10_0022.ran
#Number of data elements used: 235717
#Number of random elements used: 4681783
#Effective number of data elements weighted by wcol: 235717.000000
#Effective number of random elements weighted by wcol: 4681783.000000
#Effective number of data elements weighted by wcol*wsys: 235717.000000
#Effective number of random elements weighted by wcol*wsys: 4681783.000000
#Effective redshift value from data 0.329936
#Effective redshift value from randoms 0.330058
#Size of the Box 2500.000000 Mpc/h
#Area of the survey used 5826.000000 deg^2
#Value of alpha: 0.050365
#Normalization using data file
#Normalization using density
#Normalization 4.369661
#Shot noise factor 1.000000
#Shot noise value 3656.741719
#Type of Computation: FFT
#Number of grid cells: 512
#Type of Mass Assigment: TSC
#Type of Yamamoto: GridCenter
#Number of Interlacing steps: 2
#Grid Correction: yes
#Value of Om=0.310000
#Quadrupole as L2
#Octopole as L3
#Hexadecapole as L2L2
#k-centerbin	 k-eff	 Monopole-Pshotnoise	 Dipole	 Quadrupole	 Octopole	 Hexadecapole	 number of modes	 Pshotnoise
0.005000 0.007385 32449.479012 -11555.307822 -29891.553875 -7594.701218 7763.300493 250 3656.741719
0.015000 0.016012 70974.664840 -0.783375 -2560.572084 -6970.386730 -14157.487566 1852 3656.741719
0.025000 0.025646 52380.800704 3138.652916 5836.042835 -742.632216 -2007.670586 5020 3656.741719
0.035000 0.035469 38656.649740 418.009852 -1976.175889 83.386870 -983.975474 9756 3656.741719
0.045000 0.045368 31995.389087 794.574388 -5833.515133 -337.759714 -7527.568823 16108 3656.741719
0.055000 0.055314 25883.571551 630.750295 504.135982 284.213364 1133.778785 24064 3656.741719
0.065000 0.065258 23289.945574 171.199636 -1261.345680 -819.199767 1429.197066 33396 3656.741719
0.075000 0.075209 20792.627568 628.131295 -217.560411 158.537189 -3745.398674 44596 3656.741719
0.085000 0.085175 16027.289475 310.701932 -2142.919771 148.982031 510.142965 57124 3656.741719
0.095000 0.095157 13412.016118 419.647005 -1686.752481 -292.924597 -674.140310 71620 3656.741719
0.105000 0.105162 10974.167864 167.850949 -493.778493 -44.086339 1311.547227 87552 3656.741719
0.115000 0.115148 10116.018905 183.503851 -267.204586 37.323489 1126.116924 104524 3656.741719
0.125000 0.125146 9214.832643 98.109779 -544.481564 80.352074 484.396618 124228 3656.741719
0.135000 0.135146 8354.594628 67.188059 -1186.346618 -122.745365 -671.333480 144204 3656.741719
0.145000 0.145132 7722.373655 165.248801 -1222.345376 15.620656 582.489764 166492 3656.741719
0.155000 0.155114 6422.629263 173.450842 -503.187000 5.202932 945.351403 189964 3656.741719
0.165000 0.165102 5603.120300 53.232265 -395.083970 -103.543188 437.716819 215640 3656.741719
0.175000 0.175105 5239.223950 76.266659 -392.605704 10.624515 253.926365 242836 3656.741719
0.185000 0.185097 4650.687687 87.211932 -542.087714 38.773488 -144.282803 270556 3656.741719
0.195000 0.195085 4500.350175 15.985267 -548.306315 3.074673 317.434077 301084 3656.741719
0.205000 0.205080 4157.929374 84.011634 -753.342871 -23.934693 45.945480 332628 3656.741719
0.215000 0.215092 3659.229356 75.783424 -618.916281 25.374046 384.431347 367216 3656.741719
0.225000 0.225099 3335.566634 59.809835 -705.031368 -3.764871 149.702747 400444 3656.741719
0.235000 0.235081 2991.795177 38.133265 -825.700655 -51.415896 -7.680731 436500 3656.741719
0.245000 0.245077 2834.271567 46.324594 -743.514197 24.991423 158.622671 475900 3656.741719
0.255000 0.255082 2599.025330 45.683360 -900.999406 20.970877 159.758569 514900 3656.741719
0.265000 0.265074 2462.285095 29.956070 -742.694894 12.119539 440.415678 555408 3656.741719
0.275000 0.275066 2247.775918 64.898309 -690.690544 -73.660312 390.495114 598684 3656.741719
0.285000 0.285066 2097.172572 22.416146 -733.222557 24.965571 339.018408 643228 3656.741719
0.295000 0.295058 1953.631122 36.750412 -792.501800 -13.346278 181.119888 688036 3656.741719
