#Data file /home/DATA/sbrieden/Patchy_dr12_mocks/postrecon/original/Patchy-Mocks-DR12LOWZ-N-V5C-Portsmouth-mass_f0693b1850s10_0074.dat
#Random file /home/DATA/sbrieden/Patchy_dr12_mocks/postrecon/original/Patchy-Mocks-DR12LOWZ-N-V5C-Portsmouth-mass_f0693b1850s10_0074.ran
#Number of data elements used: 233547
#Number of random elements used: 4678862
#Effective number of data elements weighted by wcol: 233547.000000
#Effective number of random elements weighted by wcol: 4678862.000000
#Effective number of data elements weighted by wcol*wsys: 233547.000000
#Effective number of random elements weighted by wcol*wsys: 4678862.000000
#Effective redshift value from data 0.330745
#Effective redshift value from randoms 0.329557
#Size of the Box 2500.000000 Mpc/h
#Area of the survey used 5826.000000 deg^2
#Value of alpha: 0.050045
#Normalization using data file
#Normalization using density
#Normalization 4.335103
#Shot noise factor 1.000000
#Shot noise value 3666.702438
#Type of Computation: FFT
#Number of grid cells: 512
#Type of Mass Assigment: TSC
#Type of Yamamoto: GridCenter
#Number of Interlacing steps: 2
#Grid Correction: yes
#Value of Om=0.310000
#Quadrupole as L2
#Octopole as L3
#Hexadecapole as L2L2
#k-centerbin	 k-eff	 Monopole-Pshotnoise	 Dipole	 Quadrupole	 Octopole	 Hexadecapole	 number of modes	 Pshotnoise
0.005000 0.007385 54401.739096 13777.156853 40738.969742 11816.438822 16006.395503 250 3666.702438
0.015000 0.016012 46594.036699 -789.240451 -4674.222384 349.940431 -6986.769440 1852 3666.702438
0.025000 0.025646 50094.999236 -968.734093 -2098.524051 1039.689492 -2350.517647 5020 3666.702438
0.035000 0.035469 41366.305667 1685.473547 -5163.811509 -67.709038 3767.374280 9756 3666.702438
0.045000 0.045368 31478.761725 461.658616 -1799.860977 -400.673147 1058.401976 16108 3666.702438
0.055000 0.055314 27234.335921 1093.669939 -2912.731101 122.866710 -840.754934 24064 3666.702438
0.065000 0.065258 20729.431155 162.254722 -4779.624660 -150.522069 2484.007524 33396 3666.702438
0.075000 0.075209 19631.719252 326.695934 -4841.288435 -405.610218 -821.652456 44596 3666.702438
0.085000 0.085175 15881.683588 388.028335 -3047.645895 -177.451013 840.255085 57124 3666.702438
0.095000 0.095157 13299.140531 380.296372 -1648.697338 -146.511782 -470.397926 71620 3666.702438
0.105000 0.105162 11205.210070 129.502229 -1854.752922 -177.685684 267.047811 87552 3666.702438
0.115000 0.115148 10198.952692 129.433485 -1473.800318 -201.226245 -402.183193 104524 3666.702438
0.125000 0.125146 9524.676963 171.754093 -620.625312 35.823618 423.549489 124228 3666.702438
0.135000 0.135146 8651.043031 138.138591 -498.567055 48.376162 518.265137 144204 3666.702438
0.145000 0.145132 7273.167050 161.019945 -584.347505 -226.481944 507.233117 166492 3666.702438
0.155000 0.155114 6582.837394 99.116377 -323.020499 44.921758 -165.336216 189964 3666.702438
0.165000 0.165102 5762.970434 27.258170 -872.733560 180.159970 73.130771 215640 3666.702438
0.175000 0.175105 5285.571891 134.599165 -673.326836 -174.472825 257.063199 242836 3666.702438
0.185000 0.185097 4823.819080 47.971228 -572.698619 22.346758 -266.958097 270556 3666.702438
0.195000 0.195085 4484.484988 65.365208 -810.507564 39.055641 -205.593137 301084 3666.702438
0.205000 0.205080 4045.156166 64.535556 -575.555636 -32.899759 233.358212 332628 3666.702438
0.215000 0.215092 3759.554253 41.880418 -942.603374 66.314853 359.893186 367216 3666.702438
0.225000 0.225099 3389.291258 77.087017 -985.685073 -76.351853 -7.139904 400444 3666.702438
0.235000 0.235081 3126.463581 56.179224 -942.793856 -13.813226 93.252830 436500 3666.702438
0.245000 0.245077 2950.603388 33.160470 -998.335879 -22.587942 163.131900 475900 3666.702438
0.255000 0.255082 2667.047912 68.751707 -647.024129 -12.585765 184.435051 514900 3666.702438
0.265000 0.265074 2447.434621 30.434127 -726.514705 -9.930910 13.445710 555408 3666.702438
0.275000 0.275066 2229.743999 41.695032 -758.764765 25.185380 241.864265 598684 3666.702438
0.285000 0.285066 2080.300978 54.252197 -825.193363 -29.038356 515.287858 643228 3666.702438
0.295000 0.295058 1953.763077 24.518018 -794.613688 -14.090681 279.611952 688036 3666.702438
