#Data file /home/DATA/sbrieden/Patchy_dr12_mocks/postrecon/original/Patchy-Mocks-DR12LOWZ-S-V5C-Portsmouth-mass_f0693b1850s10_0099.dat
#Random file /home/DATA/sbrieden/Patchy_dr12_mocks/postrecon/original/Patchy-Mocks-DR12LOWZ-S-V5C-Portsmouth-mass_f0693b1850s10_0099.ran
#Number of data elements used: 99623
#Number of random elements used: 2005146
#Effective number of data elements weighted by wcol: 99623.000000
#Effective number of random elements weighted by wcol: 2005146.000000
#Effective number of data elements weighted by wcol*wsys: 99623.000000
#Effective number of random elements weighted by wcol*wsys: 2005146.000000
#Effective redshift value from data 0.330080
#Effective redshift value from randoms 0.330104
#Size of the Box 2500.000000 Mpc/h
#Area of the survey used 2501.000000 deg^2
#Value of alpha: 0.049599
#Normalization using data file
#Normalization using density
#Normalization 1.844737
#Shot noise factor 1.000000
#Shot noise value 3645.935723
#Type of Computation: FFT
#Number of grid cells: 512
#Type of Mass Assigment: TSC
#Type of Yamamoto: GridCenter
#Number of Interlacing steps: 2
#Grid Correction: yes
#Value of Om=0.310000
#Quadrupole as L2
#Octopole as L3
#Hexadecapole as L2L2
#k-centerbin	 k-eff	 Monopole-Pshotnoise	 Dipole	 Quadrupole	 Octopole	 Hexadecapole	 number of modes	 Pshotnoise
0.005000 0.007385 18395.465778 -4689.907253 18777.149032 -4195.247272 -4197.339126 250 3645.935723
0.015000 0.016012 52909.360825 -2283.274491 -9159.419149 16826.585179 19816.529115 1852 3645.935723
0.025000 0.025646 45461.964076 24.071036 -8814.440854 -3741.310647 -4602.830902 5020 3645.935723
0.035000 0.035469 39674.260061 2754.830473 -2759.623636 -3831.999598 2898.162094 9756 3645.935723
0.045000 0.045368 28163.190766 212.852338 5078.373904 2275.908795 -1743.531632 16108 3645.935723
0.055000 0.055314 26556.595497 474.275060 -4148.661987 -501.191865 158.668167 24064 3645.935723
0.065000 0.065258 23109.494038 279.922290 -1318.003085 -394.219731 326.048640 33396 3645.935723
0.075000 0.075209 19449.730264 328.430199 1044.857912 504.843099 1980.472941 44596 3645.935723
0.085000 0.085175 16980.259103 419.518929 -238.043109 90.473026 1965.729858 57124 3645.935723
0.095000 0.095157 13349.067599 373.129885 -714.442557 -492.766508 -921.131928 71620 3645.935723
0.105000 0.105162 10740.058171 293.649370 844.610112 323.960959 1804.847430 87552 3645.935723
0.115000 0.115148 10246.153939 -4.283803 -1647.573585 73.759396 1026.763032 104524 3645.935723
0.125000 0.125146 9475.506526 202.618255 -1199.487946 13.397029 399.651429 124228 3645.935723
0.135000 0.135146 8474.565437 -4.976368 -1096.873748 -23.561200 141.396751 144204 3645.935723
0.145000 0.145132 7696.960812 195.184475 -1647.112988 -51.876914 111.560765 166492 3645.935723
0.155000 0.155114 6394.883013 189.131222 -978.312432 -108.958818 -124.489257 189964 3645.935723
0.165000 0.165102 5720.606635 52.293865 -846.785971 -15.237338 340.091730 215640 3645.935723
0.175000 0.175105 5186.777233 57.067539 -686.264050 65.912250 -573.227461 242836 3645.935723
0.185000 0.185097 4940.008579 77.461420 -930.865597 -88.616366 301.123283 270556 3645.935723
0.195000 0.195085 4476.778251 81.261050 -828.667512 -30.505473 -92.031181 301084 3645.935723
0.205000 0.205080 3910.829689 76.974434 -978.249228 -40.651721 -65.987940 332628 3645.935723
0.215000 0.215092 3572.137262 61.154986 -554.348601 -9.764494 -81.651585 367216 3645.935723
0.225000 0.225099 3303.958107 48.561522 -500.381513 4.050598 89.861356 400444 3645.935723
0.235000 0.235081 3093.403302 54.961645 -507.685546 -41.440778 147.247996 436500 3645.935723
0.245000 0.245077 2872.549007 36.039852 -538.535429 51.519079 -27.381677 475900 3645.935723
0.255000 0.255082 2746.815580 44.466834 -735.065208 -34.800799 153.271531 514900 3645.935723
0.265000 0.265074 2482.012709 49.624746 -600.156366 39.408265 369.167350 555408 3645.935723
0.275000 0.275066 2233.455850 37.742548 -809.648688 8.542507 175.703042 598684 3645.935723
0.285000 0.285066 2084.474662 36.323434 -807.893080 -28.192847 264.768447 643228 3645.935723
0.295000 0.295058 1935.943529 53.159488 -830.438471 -31.401166 336.937919 688036 3645.935723
