#Data file /home/DATA/sbrieden/Patchy_dr12_mocks/prerecon/original/Patchy-Mocks-DR12LOWZ-N-V5C-Portsmouth-mass_0024.dat
#Random file /home/DATA/sbrieden/Patchy_dr12_mocks/prerecon/original/Random-DR12LOWZ-N-V5C-x20.dat
#Number of data elements used: 235434
#Number of random elements used: 4685323
#Effective number of data elements weighted by wcol: 235434.000000
#Effective number of random elements weighted by wcol: 4685323.000000
#Effective number of data elements weighted by wcol*wsys: 235434.000000
#Effective number of random elements weighted by wcol*wsys: 4685323.000000
#Effective redshift value from data 0.329698
#Effective redshift value from randoms 0.330058
#Size of the Box 2500.000000 Mpc/h
#Area of the survey used 5826.000000 deg^2
#Value of alpha: 0.050177
#Normalization using data file
#Normalization using density
#Normalization 4.360894
#Shot noise factor 1.000000
#Shot noise value 3649.627855
#Type of Computation: FFT
#Number of grid cells: 512
#Type of Mass Assigment: TSC
#Type of Yamamoto: GridCenter
#Number of Interlacing steps: 2
#Grid Correction: yes
#Value of Om=0.310000
#Quadrupole as L2
#Octopole as L3
#Hexadecapole as L2L2
#k-centerbin	 k-eff	 Monopole-Pshotnoise	 Dipole	 Quadrupole	 Octopole	 Hexadecapole	 number of modes	 Pshotnoise
0.005000 0.007385 44690.650550 -8561.735296 1955.315235 -6306.735551 8129.209140 250 3649.627855
0.015000 0.016012 59413.721081 906.621718 7696.103813 2872.663475 -12498.953475 1852 3649.627855
0.025000 0.025646 56670.808260 53.010476 11676.286902 -129.875909 5136.074161 5020 3649.627855
0.035000 0.035469 51767.397004 2547.937036 22109.529479 2664.048276 2092.032495 9756 3649.627855
0.045000 0.045368 39114.293497 1251.705921 19331.443269 554.887776 58.520298 16108 3649.627855
0.055000 0.055314 32658.287107 523.009789 14673.172239 1681.326884 1408.654260 24064 3649.627855
0.065000 0.065258 29448.283568 327.117349 9731.197040 1056.931335 -2808.792262 33396 3649.627855
0.075000 0.075209 25197.011906 773.789198 8421.042444 542.241550 1976.514251 44596 3649.627855
0.085000 0.085175 22115.100750 499.378554 8004.786221 229.882142 -1155.131627 57124 3649.627855
0.095000 0.095157 17885.216900 432.032208 6575.074624 365.380342 364.823403 71620 3649.627855
0.105000 0.105162 15889.330935 197.040477 5705.551851 577.352523 1305.188287 87552 3649.627855
0.115000 0.115148 14116.319502 228.786946 4816.308315 232.678332 1270.508019 104524 3649.627855
0.125000 0.125146 12603.435500 126.477950 3357.799839 192.977208 1297.646332 124228 3649.627855
0.135000 0.135146 11891.736572 195.884491 3411.533091 90.582488 -21.542403 144204 3649.627855
0.145000 0.145132 10333.331918 225.314365 3297.690150 162.713324 794.116109 166492 3649.627855
0.155000 0.155114 9331.299497 116.521509 2478.144547 173.682634 819.294171 189964 3649.627855
0.165000 0.165102 8363.667379 139.394488 1862.277230 5.818647 246.440180 215640 3649.627855
0.175000 0.175105 7586.822461 113.512542 1917.077836 141.073365 92.297592 242836 3649.627855
0.185000 0.185097 7077.754406 92.590888 1864.290998 36.030395 -13.142711 270556 3649.627855
0.195000 0.195085 6567.642371 96.500610 1578.330903 74.179505 858.071898 301084 3649.627855
0.205000 0.205080 6056.646630 73.266489 1433.086474 44.024322 377.936313 332628 3649.627855
0.215000 0.215092 5682.949068 67.197301 1293.071930 -23.605111 272.700041 367216 3649.627855
0.225000 0.225099 5282.211352 80.741758 1115.350364 117.782394 248.643905 400444 3649.627855
0.235000 0.235081 4833.735713 65.305151 928.397816 47.730682 525.878560 436500 3649.627855
0.245000 0.245077 4460.300877 67.435330 592.448116 91.629886 488.898779 475900 3649.627855
0.255000 0.255082 4218.745854 59.021303 325.704911 -8.561557 276.694459 514900 3649.627855
0.265000 0.265074 3892.909778 60.510706 426.935045 -19.132127 417.874513 555408 3649.627855
0.275000 0.275066 3692.237740 68.929027 497.083492 7.310629 87.999622 598684 3649.627855
0.285000 0.285066 3436.683021 31.980129 286.009520 49.171724 188.819570 643228 3649.627855
0.295000 0.295058 3329.149627 55.542231 210.239176 35.929956 238.093910 688036 3649.627855
