#Data file /home/DATA/sbrieden/Patchy_dr12_mocks/prerecon/original/Patchy-Mocks-DR12LOWZ-S-V5C-Portsmouth-mass_0059.dat
#Random file /home/DATA/sbrieden/Patchy_dr12_mocks/prerecon/original/Random-DR12LOWZ-S-V5C-x20.dat
#Number of data elements used: 100370
#Number of random elements used: 2007904
#Effective number of data elements weighted by wcol: 100370.000000
#Effective number of random elements weighted by wcol: 2007904.000000
#Effective number of data elements weighted by wcol*wsys: 100370.000000
#Effective number of random elements weighted by wcol*wsys: 2007904.000000
#Effective redshift value from data 0.330407
#Effective redshift value from randoms 0.330155
#Size of the Box 2500.000000 Mpc/h
#Area of the survey used 2501.000000 deg^2
#Value of alpha: 0.050011
#Normalization using data file
#Normalization using density
#Normalization 1.861666
#Shot noise factor 1.000000
#Shot noise value 3657.503549
#Type of Computation: FFT
#Number of grid cells: 512
#Type of Mass Assigment: TSC
#Type of Yamamoto: GridCenter
#Number of Interlacing steps: 2
#Grid Correction: yes
#Value of Om=0.310000
#Quadrupole as L2
#Octopole as L3
#Hexadecapole as L2L2
#k-centerbin	 k-eff	 Monopole-Pshotnoise	 Dipole	 Quadrupole	 Octopole	 Hexadecapole	 number of modes	 Pshotnoise
0.005000 0.007385 31748.905830 -1517.951441 9833.833254 -17419.012808 -38210.159761 250 3657.503549
0.015000 0.016012 53236.886313 -362.917295 34983.209977 -1134.899663 -2447.482050 1852 3657.503549
0.025000 0.025646 61821.992393 -1496.886343 31178.203795 16310.770425 22071.155919 5020 3657.503549
0.035000 0.035469 52580.817349 1640.344556 3027.438226 1885.352937 15238.685019 9756 3657.503549
0.045000 0.045368 37652.859503 2711.280152 10345.876163 -754.725995 16799.038360 16108 3657.503549
0.055000 0.055314 33868.190055 -312.280625 10503.679222 1696.581801 9545.346305 24064 3657.503549
0.065000 0.065258 32268.692983 683.199271 11724.535854 112.402064 -1525.471239 33396 3657.503549
0.075000 0.075209 26176.391728 888.910122 7733.663810 426.542594 2716.618888 44596 3657.503549
0.085000 0.085175 21060.590329 570.710822 6450.760557 185.282629 1596.728228 57124 3657.503549
0.095000 0.095157 18463.319913 150.840914 7891.053141 773.706112 1774.794069 71620 3657.503549
0.105000 0.105162 16220.502130 318.595248 5067.538785 188.058171 -1792.862075 87552 3657.503549
0.115000 0.115148 14511.603498 229.305119 5191.606597 524.284563 2226.333996 104524 3657.503549
0.125000 0.125146 13110.377851 120.568798 2625.239037 275.622982 134.960246 124228 3657.503549
0.135000 0.135146 11323.548684 313.372030 3679.031141 -250.648822 503.198144 144204 3657.503549
0.145000 0.145132 10176.167784 75.359310 3600.088115 332.233674 1224.585527 166492 3657.503549
0.155000 0.155114 9112.767233 206.882013 2215.297777 128.643456 561.225500 189964 3657.503549
0.165000 0.165102 8348.521337 120.314196 2386.521256 -9.745685 520.338373 215640 3657.503549
0.175000 0.175105 7746.674529 57.141751 1885.657414 234.186958 281.364116 242836 3657.503549
0.185000 0.185097 7415.113600 80.792910 994.449085 15.529580 95.123405 270556 3657.503549
0.195000 0.195085 6613.838809 122.500504 1000.663813 -2.857311 310.203336 301084 3657.503549
0.205000 0.205080 6145.118878 96.877289 1032.464495 63.208853 194.102871 332628 3657.503549
0.215000 0.215092 5612.755407 60.557922 1094.902662 -37.540000 680.373049 367216 3657.503549
0.225000 0.225099 5292.601388 82.309158 1072.721814 100.249976 542.324065 400444 3657.503549
0.235000 0.235081 4973.581586 77.891216 782.462832 -107.970540 -195.206013 436500 3657.503549
0.245000 0.245077 4620.737427 35.133471 629.072984 169.779368 -244.460976 475900 3657.503549
0.255000 0.255082 4298.623454 82.162787 493.884142 -24.948653 186.596316 514900 3657.503549
0.265000 0.265074 3997.038181 50.961962 579.741231 22.338065 -28.794825 555408 3657.503549
0.275000 0.275066 3673.939236 56.116073 421.630357 58.985485 -35.533469 598684 3657.503549
0.285000 0.285066 3554.880539 46.362259 -0.952148 15.525505 134.451089 643228 3657.503549
0.295000 0.295058 3304.535912 50.198770 203.652051 31.113924 298.782931 688036 3657.503549
