#Data file /home/DATA/sbrieden/Patchy_dr12_mocks/prerecon/original/Patchy-Mocks-DR12LOWZ-S-V5C-Portsmouth-mass_0001.dat
#Random file /home/DATA/sbrieden/Patchy_dr12_mocks/prerecon/original/Random-DR12LOWZ-S-V5C-x20.dat
#Number of data elements used: 102566
#Number of random elements used: 2007904
#Effective number of data elements weighted by wcol: 102566.000000
#Effective number of random elements weighted by wcol: 2007904.000000
#Effective number of data elements weighted by wcol*wsys: 102566.000000
#Effective number of random elements weighted by wcol*wsys: 2007904.000000
#Effective redshift value from data 0.329385
#Effective redshift value from randoms 0.330155
#Size of the Box 2500.000000 Mpc/h
#Area of the survey used 2501.000000 deg^2
#Value of alpha: 0.050838
#Normalization using data file
#Normalization using density
#Normalization 1.895430
#Shot noise factor 1.000000
#Shot noise value 3638.966325
#Type of Computation: FFT
#Number of grid cells: 512
#Type of Mass Assigment: TSC
#Type of Yamamoto: GridCenter
#Number of Interlacing steps: 2
#Grid Correction: yes
#Value of Om=0.310000
#Quadrupole as L2
#Octopole as L3
#Hexadecapole as L2L2
#k-centerbin	 k-eff	 Monopole-Pshotnoise	 Dipole	 Quadrupole	 Octopole	 Hexadecapole	 number of modes	 Pshotnoise
0.005000 0.007385 44114.302896 -4684.255822 3885.130935 -5699.756194 -20068.404135 250 3638.966325
0.015000 0.016012 74074.722583 -1680.157299 52236.969042 -4732.285066 -39229.202439 1852 3638.966325
0.025000 0.025646 82572.123397 2497.295946 33196.024500 10742.376591 5695.850980 5020 3638.966325
0.035000 0.035469 55511.116863 3643.959113 22823.409991 521.347066 -10297.736796 9756 3638.966325
0.045000 0.045368 40443.732411 1128.753020 20197.823892 3685.932696 452.852836 16108 3638.966325
0.055000 0.055314 29212.442697 975.150044 8560.316297 819.063717 1459.407810 24064 3638.966325
0.065000 0.065258 29565.744736 229.147290 12215.664147 1016.975027 -1114.173402 33396 3638.966325
0.075000 0.075209 25585.139340 245.998987 4659.980824 542.543095 -3433.735938 44596 3638.966325
0.085000 0.085175 22878.105352 592.848350 5717.607057 125.872400 1999.479752 57124 3638.966325
0.095000 0.095157 19416.640853 432.676084 6793.031364 243.195384 595.618426 71620 3638.966325
0.105000 0.105162 16132.810370 366.707520 6442.824065 341.153867 3541.617458 87552 3638.966325
0.115000 0.115148 14361.981091 278.643121 4315.583529 656.939112 -78.000894 104524 3638.966325
0.125000 0.125146 12320.783721 155.168382 2632.466843 -126.572100 1166.254403 124228 3638.966325
0.135000 0.135146 11286.485214 234.072510 3063.583341 159.875714 224.607834 144204 3638.966325
0.145000 0.145132 9851.063562 157.671508 2598.893341 262.384994 1060.080503 166492 3638.966325
0.155000 0.155114 8872.382613 152.682205 2447.457982 -160.558175 1148.159621 189964 3638.966325
0.165000 0.165102 8309.005506 19.469200 1827.947775 253.030521 593.086655 215640 3638.966325
0.175000 0.175105 7994.457383 149.662934 1735.051407 -0.829096 -476.865508 242836 3638.966325
0.185000 0.185097 7343.617632 121.680408 1699.617680 52.224552 -100.308882 270556 3638.966325
0.195000 0.195085 6570.880334 109.948650 1223.771930 116.380501 141.233331 301084 3638.966325
0.205000 0.205080 6024.792962 61.087010 1642.588910 62.972508 1046.204713 332628 3638.966325
0.215000 0.215092 5581.672866 93.489756 1240.324883 -41.991610 264.507043 367216 3638.966325
0.225000 0.225099 5191.185420 86.600618 1040.808148 37.073730 -23.741573 400444 3638.966325
0.235000 0.235081 4696.065667 51.964927 739.289948 140.643432 9.830268 436500 3638.966325
0.245000 0.245077 4364.998077 71.111234 582.250885 64.733248 541.751376 475900 3638.966325
0.255000 0.255082 4052.360061 45.644579 319.921831 6.999938 703.908551 514900 3638.966325
0.265000 0.265074 3891.937245 63.987064 -19.302890 25.811854 251.326450 555408 3638.966325
0.275000 0.275066 3610.186700 62.378249 143.771974 -63.409578 8.281834 598684 3638.966325
0.285000 0.285066 3349.981271 38.911984 134.794627 -1.210152 -95.191353 643228 3638.966325
0.295000 0.295058 3223.726639 58.103677 310.500614 48.688503 298.671244 688036 3638.966325
