#Data file /home/DATA/sbrieden/Patchy_dr12_mocks/prerecon/original/Patchy-Mocks-DR12CMASS-N-V6C-Portsmouth-mass_0045.dat
#Random file /home/DATA/sbrieden/Patchy_dr12_mocks/prerecon/original/Random-DR12CMASS-N-V6C-x20.dat
#Number of data elements used: 587414
#Number of random elements used: 11797448
#Effective number of data elements weighted by wcol: 587414.000000
#Effective number of random elements weighted by wcol: 11797448.000000
#Effective number of data elements weighted by wcol*wsys: 587414.000000
#Effective number of random elements weighted by wcol*wsys: 11797448.000000
#Effective redshift value from data 0.597968
#Effective redshift value from randoms 0.597992
#Size of the Box 3700.000000 Mpc/h
#Area of the survey used 6851.000000 deg^2
#Value of alpha: 0.049717
#Normalization using data file
#Normalization using density
#Normalization 11.032810
#Shot noise factor 1.000000
#Shot noise value 4929.225439
#Type of Computation: FFT
#Number of grid cells: 512
#Type of Mass Assigment: TSC
#Type of Yamamoto: GridCenter
#Number of Interlacing steps: 2
#Grid Correction: yes
#Value of Om=0.310000
#Quadrupole as L2
#Octopole as L3
#Hexadecapole as L2L2
#k-centerbin	 k-eff	 Monopole-Pshotnoise	 Dipole	 Quadrupole	 Octopole	 Hexadecapole	 number of modes	 Pshotnoise
0.005000 0.007485 63221.919525 -1773.345448 -382.435691 -10002.334622 -13787.199597 846 4929.225439
0.015000 0.016072 63937.697069 2040.036400 17516.568898 3245.147305 50.176423 6012 4929.225439
0.025000 0.025646 60305.950687 571.905301 21251.569067 2173.526260 15448.111231 16172 4929.225439
0.035000 0.035469 46211.584934 1355.404447 24234.150076 1615.541961 3371.672707 31764 4929.225439
0.045000 0.045378 35856.781127 383.246340 14979.931376 1965.168546 5942.619074 52164 4929.225439
0.055000 0.055280 31326.836634 401.869014 13533.675397 -57.440100 1741.323185 77396 4929.225439
0.065000 0.065232 29172.886121 350.251265 10712.820408 477.144353 525.749215 108936 4929.225439
0.075000 0.075229 24492.788897 422.853440 8303.237733 394.707304 -1204.679727 144980 4929.225439
0.085000 0.085193 20210.923537 264.133312 7106.582254 349.025543 1295.617187 184854 4929.225439
0.095000 0.095166 16883.892197 266.901976 5658.682812 130.240233 713.151961 232260 4929.225439
0.105000 0.105155 14679.717086 173.600237 5545.027890 109.495995 -495.783614 282884 4929.225439
0.115000 0.115131 12968.337489 125.533936 4284.241808 216.604281 190.078235 339084 4929.225439
0.125000 0.125124 11916.631992 103.940130 3681.033805 119.266751 459.066478 401864 4929.225439
0.135000 0.135125 10759.612987 94.512715 3091.684058 158.087722 301.135361 468084 4929.225439
0.145000 0.145120 9704.270342 127.593424 2847.295120 11.171310 330.125166 539940 4929.225439
0.155000 0.155118 8710.731403 127.636623 2357.628004 65.630604 487.073826 617324 4929.225439
0.165000 0.165105 7839.803775 73.018362 2287.885424 71.346143 609.263214 697452 4929.225439
0.175000 0.175088 7093.173284 74.064400 1845.634820 58.485761 80.572667 785846 4929.225439
0.185000 0.185089 6640.040727 87.368807 1507.609094 -0.560680 397.422576 879528 4929.225439
0.195000 0.195093 6129.495105 63.271453 1410.318950 77.725554 234.835819 976596 4929.225439
0.205000 0.205084 5654.999147 68.070767 1094.828195 20.402546 386.971318 1077212 4929.225439
0.215000 0.215076 5305.335039 66.175634 1055.281902 27.938264 286.016582 1186908 4929.225439
0.225000 0.225076 4915.799530 69.916517 928.272206 18.067235 287.865455 1299452 4929.225439
0.235000 0.235073 4575.219100 52.199998 797.953611 33.548101 275.217715 1417356 4929.225439
0.245000 0.245067 4243.406666 66.047527 725.998605 -16.517114 154.522057 1539600 4929.225439
0.255000 0.255064 3972.882612 56.864652 421.200754 54.133015 126.973965 1669820 4929.225439
0.265000 0.265061 3784.214030 52.298649 297.754410 15.365881 292.863111 1801086 4929.225439
0.275000 0.275060 3546.240246 62.702932 341.695465 -12.353248 293.284725 1942244 4929.225439
0.285000 0.285062 3341.597515 50.090830 208.865385 35.540149 123.822997 2084796 4929.225439
0.295000 0.295057 3159.108026 55.607485 77.051379 14.464773 329.504905 2231868 4929.225439
