#Data file /home/DATA/sbrieden/Patchy_dr12_mocks/prerecon/original/Patchy-Mocks-DR12LOWZ-N-V5C-Portsmouth-mass_0079.dat
#Random file /home/DATA/sbrieden/Patchy_dr12_mocks/prerecon/original/Random-DR12LOWZ-N-V5C-x20.dat
#Number of data elements used: 234457
#Number of random elements used: 4685323
#Effective number of data elements weighted by wcol: 234457.000000
#Effective number of random elements weighted by wcol: 4685323.000000
#Effective number of data elements weighted by wcol*wsys: 234457.000000
#Effective number of random elements weighted by wcol*wsys: 4685323.000000
#Effective redshift value from data 0.330085
#Effective redshift value from randoms 0.330058
#Size of the Box 2500.000000 Mpc/h
#Area of the survey used 5826.000000 deg^2
#Value of alpha: 0.050038
#Normalization using data file
#Normalization using density
#Normalization 4.346792
#Shot noise factor 1.000000
#Shot noise value 3655.627663
#Type of Computation: FFT
#Number of grid cells: 512
#Type of Mass Assigment: TSC
#Type of Yamamoto: GridCenter
#Number of Interlacing steps: 2
#Grid Correction: yes
#Value of Om=0.310000
#Quadrupole as L2
#Octopole as L3
#Hexadecapole as L2L2
#k-centerbin	 k-eff	 Monopole-Pshotnoise	 Dipole	 Quadrupole	 Octopole	 Hexadecapole	 number of modes	 Pshotnoise
0.005000 0.007385 61126.527472 1183.664896 -12103.095917 -22450.587213 -49416.637420 250 3655.627663
0.015000 0.016012 71503.228861 -1295.633804 8951.195252 -2152.662969 -20157.015840 1852 3655.627663
0.025000 0.025646 63637.203037 3567.337470 31935.616760 -2095.865289 -9639.991715 5020 3655.627663
0.035000 0.035469 55345.537380 1008.399566 23929.274882 3879.818799 -9273.456270 9756 3655.627663
0.045000 0.045368 40451.215515 1726.049044 12273.705655 1975.556781 -892.003248 16108 3655.627663
0.055000 0.055314 32142.683334 747.123562 12483.426525 -401.448770 -707.060456 24064 3655.627663
0.065000 0.065258 29926.563947 546.912037 10062.816774 1859.893116 -4551.157433 33396 3655.627663
0.075000 0.075209 24880.205177 564.860386 8007.581725 -357.743885 -1362.467525 44596 3655.627663
0.085000 0.085175 21944.637830 501.438274 8355.202344 401.769383 -2010.913485 57124 3655.627663
0.095000 0.095157 17719.266887 469.328540 7812.347755 441.842182 1028.418945 71620 3655.627663
0.105000 0.105162 15565.996545 139.666506 6484.764024 613.025732 164.376596 87552 3655.627663
0.115000 0.115148 14372.638030 272.055749 4701.990437 225.064227 1189.880748 104524 3655.627663
0.125000 0.125146 12751.390412 173.764893 3988.537667 223.106213 266.624570 124228 3655.627663
0.135000 0.135146 11652.187414 154.435493 3702.882204 252.547006 786.362195 144204 3655.627663
0.145000 0.145132 10364.053030 197.313334 2430.518200 143.865197 793.374894 166492 3655.627663
0.155000 0.155114 9347.068693 146.268506 2427.748951 110.701187 918.608913 189964 3655.627663
0.165000 0.165102 8453.841724 135.765772 2503.069680 -33.974882 386.259973 215640 3655.627663
0.175000 0.175105 7581.581090 92.019595 1997.315296 136.333196 307.415325 242836 3655.627663
0.185000 0.185097 7167.755603 98.320063 2108.905679 3.745091 284.812798 270556 3655.627663
0.195000 0.195085 6727.706329 68.649355 1569.691795 114.382781 155.460231 301084 3655.627663
0.205000 0.205080 6094.822976 107.578152 1630.186148 71.337477 353.346696 332628 3655.627663
0.215000 0.215092 5590.203850 95.515449 1242.599231 15.875612 257.394392 367216 3655.627663
0.225000 0.225099 5141.154244 52.451688 968.194060 45.539897 208.942983 400444 3655.627663
0.235000 0.235081 4809.701292 75.221949 932.577751 50.573127 255.804889 436500 3655.627663
0.245000 0.245077 4487.512339 64.882775 777.710321 42.237612 33.539220 475900 3655.627663
0.255000 0.255082 4240.901094 33.984200 576.893012 72.034321 338.279374 514900 3655.627663
0.265000 0.265074 3906.665966 83.517586 380.708170 7.890955 260.687135 555408 3655.627663
0.275000 0.275066 3701.669211 52.929523 357.677696 -19.012092 248.104660 598684 3655.627663
0.285000 0.285066 3482.306939 38.925409 240.615093 57.381049 135.436233 643228 3655.627663
0.295000 0.295058 3276.723061 55.909366 169.638674 -0.312711 136.078748 688036 3655.627663
