#Data file /home/DATA/sbrieden/Patchy_dr12_mocks/prerecon/original/Patchy-Mocks-DR12CMASS-S-V6C-Portsmouth-mass_0092.dat
#Random file /home/DATA/sbrieden/Patchy_dr12_mocks/prerecon/original/Random-DR12CMASS-S-V6C-x20.dat
#Number of data elements used: 213538
#Number of random elements used: 4288842
#Effective number of data elements weighted by wcol: 213538.000000
#Effective number of random elements weighted by wcol: 4288842.000000
#Effective number of data elements weighted by wcol*wsys: 213538.000000
#Effective number of random elements weighted by wcol*wsys: 4288842.000000
#Effective redshift value from data 0.598209
#Effective redshift value from randoms 0.597190
#Size of the Box 3700.000000 Mpc/h
#Area of the survey used 2525.000000 deg^2
#Value of alpha: 0.049996
#Normalization using data file
#Normalization using density
#Normalization 4.061551
#Shot noise factor 1.000000
#Shot noise value 4968.103983
#Type of Computation: FFT
#Number of grid cells: 512
#Type of Mass Assigment: TSC
#Type of Yamamoto: GridCenter
#Number of Interlacing steps: 2
#Grid Correction: yes
#Value of Om=0.310000
#Quadrupole as L2
#Octopole as L3
#Hexadecapole as L2L2
#k-centerbin	 k-eff	 Monopole-Pshotnoise	 Dipole	 Quadrupole	 Octopole	 Hexadecapole	 number of modes	 Pshotnoise
0.005000 0.007485 68425.989649 2333.203967 60591.162229 17718.357748 14364.295356 846 4968.103983
0.015000 0.016072 70479.274773 1426.535965 19404.497627 10268.568449 27427.724492 6012 4968.103983
0.025000 0.025646 54994.894765 589.419697 -3199.157679 -2026.664529 4492.346772 16172 4968.103983
0.035000 0.035469 49191.673607 1272.355663 20556.959573 926.823967 8281.685389 31764 4968.103983
0.045000 0.045378 36057.835445 656.771895 15945.659346 1415.751882 2923.457964 52164 4968.103983
0.055000 0.055280 30217.968965 519.212590 13495.328882 670.702214 5051.254680 77396 4968.103983
0.065000 0.065232 27082.144068 80.184757 11053.222495 449.018885 1904.045335 108936 4968.103983
0.075000 0.075229 23794.579011 299.560764 9075.280015 479.780023 1660.563222 144980 4968.103983
0.085000 0.085193 20386.628852 416.042941 9597.101633 413.077492 1070.518471 184854 4968.103983
0.095000 0.095166 16537.653711 267.185319 5053.223763 106.094058 1267.974103 232260 4968.103983
0.105000 0.105155 14343.146613 89.647388 5359.610248 252.994088 811.326081 282884 4968.103983
0.115000 0.115131 13333.109142 111.320181 3288.325697 84.129382 106.639692 339084 4968.103983
0.125000 0.125124 12427.451391 147.475931 4204.975274 -75.965481 -258.388974 401864 4968.103983
0.135000 0.135125 10934.077960 168.155094 4086.426794 192.444224 -437.183516 468084 4968.103983
0.145000 0.145120 9168.293091 135.472559 3398.176712 44.088190 55.377878 539940 4968.103983
0.155000 0.155118 8465.402898 73.262935 2609.277166 211.246925 850.964180 617324 4968.103983
0.165000 0.165105 7668.918132 61.164478 1930.099966 16.884639 137.729701 697452 4968.103983
0.175000 0.175088 7212.912917 69.569377 1767.868901 141.922016 470.475188 785846 4968.103983
0.185000 0.185089 6480.577105 94.680122 1635.152282 -31.849470 335.199086 879528 4968.103983
0.195000 0.195093 6166.407589 54.531940 1191.121056 11.233012 88.340369 976596 4968.103983
0.205000 0.205084 5816.674494 92.468493 1545.422192 -9.794325 554.745210 1077212 4968.103983
0.215000 0.215076 5219.228885 62.126265 1161.464074 73.710974 213.372593 1186908 4968.103983
0.225000 0.225076 4905.078650 75.582804 686.735110 33.961076 435.429618 1299452 4968.103983
0.235000 0.235073 4345.760961 53.959512 740.464531 0.420279 211.496478 1417356 4968.103983
0.245000 0.245067 4254.061714 47.338193 352.932769 34.549430 40.415050 1539600 4968.103983
0.255000 0.255064 3936.721293 60.373330 648.775984 20.714919 363.383281 1669820 4968.103983
0.265000 0.265061 3861.769889 44.255016 314.038070 2.643284 242.038096 1801086 4968.103983
0.275000 0.275060 3630.508293 73.364190 452.118798 -6.374424 171.325728 1942244 4968.103983
0.285000 0.285062 3372.981646 42.166506 130.939988 61.610470 173.750053 2084796 4968.103983
0.295000 0.295057 3130.561774 70.252063 60.585984 -27.873814 379.974632 2231868 4968.103983
