#Data file /home/DATA/sbrieden/Patchy_dr12_mocks/prerecon/original/Patchy-Mocks-DR12LOWZ-N-V5C-Portsmouth-mass_0050.dat
#Random file /home/DATA/sbrieden/Patchy_dr12_mocks/prerecon/original/Random-DR12LOWZ-N-V5C-x20.dat
#Number of data elements used: 235186
#Number of random elements used: 4685323
#Effective number of data elements weighted by wcol: 235186.000000
#Effective number of random elements weighted by wcol: 4685323.000000
#Effective number of data elements weighted by wcol*wsys: 235186.000000
#Effective number of random elements weighted by wcol*wsys: 4685323.000000
#Effective redshift value from data 0.329418
#Effective redshift value from randoms 0.330058
#Size of the Box 2500.000000 Mpc/h
#Area of the survey used 5826.000000 deg^2
#Value of alpha: 0.050137
#Normalization using data file
#Normalization using density
#Normalization 4.357381
#Shot noise factor 1.000000
#Shot noise value 3649.781979
#Type of Computation: FFT
#Number of grid cells: 512
#Type of Mass Assigment: TSC
#Type of Yamamoto: GridCenter
#Number of Interlacing steps: 2
#Grid Correction: yes
#Value of Om=0.310000
#Quadrupole as L2
#Octopole as L3
#Hexadecapole as L2L2
#k-centerbin	 k-eff	 Monopole-Pshotnoise	 Dipole	 Quadrupole	 Octopole	 Hexadecapole	 number of modes	 Pshotnoise
0.005000 0.007385 42101.871629 -1780.592186 7820.324619 15312.949708 16676.806389 250 3649.781979
0.015000 0.016012 53694.906288 -615.605577 -6350.677822 -5036.711303 1279.001907 1852 3649.781979
0.025000 0.025646 51721.923810 1403.550241 7702.792047 -459.179867 5978.352698 5020 3649.781979
0.035000 0.035469 45009.262367 770.787834 13029.914859 2116.641777 8671.451011 9756 3649.781979
0.045000 0.045368 39532.676614 964.566442 12849.071189 32.208610 -4481.315422 16108 3649.781979
0.055000 0.055314 34872.155477 334.339265 11040.143819 1682.427373 -3126.570426 24064 3649.781979
0.065000 0.065258 30694.298843 1130.178531 10562.694699 -496.734935 113.762016 33396 3649.781979
0.075000 0.075209 24588.953180 579.318416 10222.742428 1172.474386 1090.324735 44596 3649.781979
0.085000 0.085175 21716.329197 467.247555 8378.741885 903.505855 1254.310335 57124 3649.781979
0.095000 0.095157 18485.402739 290.540341 6138.789972 240.006173 1198.284331 71620 3649.781979
0.105000 0.105162 15886.450804 326.569303 5127.105720 125.007432 274.683056 87552 3649.781979
0.115000 0.115148 14234.121164 187.178821 4835.274996 468.353948 1886.231899 104524 3649.781979
0.125000 0.125146 12852.294159 192.546042 3190.635701 286.106607 797.258802 124228 3649.781979
0.135000 0.135146 11440.483759 203.068122 2838.953574 -127.627353 110.244938 144204 3649.781979
0.145000 0.145132 10456.128486 141.895866 3452.328486 270.850183 390.039555 166492 3649.781979
0.155000 0.155114 9296.444909 170.950426 2668.939187 49.517812 423.687833 189964 3649.781979
0.165000 0.165102 8302.101404 154.814941 2377.644394 181.538245 851.038632 215640 3649.781979
0.175000 0.175105 7652.243952 110.849234 1948.540676 51.461471 260.842615 242836 3649.781979
0.185000 0.185097 6981.200567 51.410990 1857.823388 26.452110 471.981603 270556 3649.781979
0.195000 0.195085 6560.393617 65.000676 1127.279585 154.160646 217.411629 301084 3649.781979
0.205000 0.205080 6128.927480 86.482316 1116.826318 -32.020987 227.707640 332628 3649.781979
0.215000 0.215092 5628.318396 86.068850 743.205402 75.268824 344.723153 367216 3649.781979
0.225000 0.225099 5275.760471 83.092232 847.021025 27.393703 248.560542 400444 3649.781979
0.235000 0.235081 4864.115625 67.069444 845.426324 0.107782 596.241298 436500 3649.781979
0.245000 0.245077 4577.799483 79.456761 947.408497 -10.247181 378.943876 475900 3649.781979
0.255000 0.255082 4159.069223 53.135087 563.608138 72.792384 -53.901790 514900 3649.781979
0.265000 0.265074 3950.773324 51.425934 449.025533 56.724805 319.343822 555408 3649.781979
0.275000 0.275066 3734.012118 64.339972 150.659467 -20.324344 14.604893 598684 3649.781979
0.285000 0.285066 3510.313258 38.772336 156.279921 9.955100 123.274573 643228 3649.781979
0.295000 0.295058 3355.215988 53.366182 362.783553 34.506476 402.240117 688036 3649.781979
