#Data file /home/DATA/sbrieden/Patchy_dr12_mocks/prerecon/original/Patchy-Mocks-DR12CMASS-N-V6C-Portsmouth-mass_0005.dat
#Random file /home/DATA/sbrieden/Patchy_dr12_mocks/prerecon/original/Random-DR12CMASS-N-V6C-x20.dat
#Number of data elements used: 590022
#Number of random elements used: 11797448
#Effective number of data elements weighted by wcol: 590022.000000
#Effective number of random elements weighted by wcol: 11797448.000000
#Effective number of data elements weighted by wcol*wsys: 590022.000000
#Effective number of random elements weighted by wcol*wsys: 11797448.000000
#Effective redshift value from data 0.598038
#Effective redshift value from randoms 0.597992
#Size of the Box 3700.000000 Mpc/h
#Area of the survey used 6851.000000 deg^2
#Value of alpha: 0.050036
#Normalization using data file
#Normalization using density
#Normalization 11.096489
#Shot noise factor 1.000000
#Shot noise value 4940.064726
#Type of Computation: FFT
#Number of grid cells: 512
#Type of Mass Assigment: TSC
#Type of Yamamoto: GridCenter
#Number of Interlacing steps: 2
#Grid Correction: yes
#Value of Om=0.310000
#Quadrupole as L2
#Octopole as L3
#Hexadecapole as L2L2
#k-centerbin	 k-eff	 Monopole-Pshotnoise	 Dipole	 Quadrupole	 Octopole	 Hexadecapole	 number of modes	 Pshotnoise
0.005000 0.007485 38409.826787 -2093.703520 2029.162737 288.976387 2854.731397 846 4940.064726
0.015000 0.016072 73375.451947 -777.750278 14286.667919 -910.373604 -12048.362865 6012 4940.064726
0.025000 0.025646 58894.579835 1742.122590 14746.400204 688.808617 -10624.121786 16172 4940.064726
0.035000 0.035469 46054.421091 774.665449 17929.942508 509.181527 -3558.507776 31764 4940.064726
0.045000 0.045378 38034.997538 879.309133 16226.732075 321.799821 -5090.766485 52164 4940.064726
0.055000 0.055280 31396.409095 402.241254 15502.234005 1159.653990 2632.252024 77396 4940.064726
0.065000 0.065232 28380.875469 242.746966 11366.726521 612.986451 408.946703 108936 4940.064726
0.075000 0.075229 24822.182047 343.277831 10196.612578 329.330114 739.165578 144980 4940.064726
0.085000 0.085193 20693.630497 333.641748 8279.925678 397.268728 1731.329707 184854 4940.064726
0.095000 0.095166 16903.544935 287.832992 6235.773276 286.852954 610.239350 232260 4940.064726
0.105000 0.105155 14368.620868 170.176158 5680.226593 94.557092 1461.969436 282884 4940.064726
0.115000 0.115131 13041.664662 121.406774 4648.012731 224.734997 1479.433334 339084 4940.064726
0.125000 0.125124 11779.197932 89.403206 3929.171640 114.478455 454.254577 401864 4940.064726
0.135000 0.135125 11043.471757 157.419727 3722.539153 0.914038 868.259624 468084 4940.064726
0.145000 0.145120 9827.831554 95.735362 3374.840110 125.596860 382.706392 539940 4940.064726
0.155000 0.155118 8771.803124 118.866475 2762.404260 124.158141 340.463710 617324 4940.064726
0.165000 0.165105 7842.280008 89.410096 2305.909369 58.931112 636.311407 697452 4940.064726
0.175000 0.175088 7071.883247 71.813677 2176.438364 24.015276 346.210131 785846 4940.064726
0.185000 0.185089 6671.320749 65.825794 1865.233045 72.925450 163.648268 879528 4940.064726
0.195000 0.195093 6197.512337 77.120875 1586.772080 23.072106 420.978364 976596 4940.064726
0.205000 0.205084 5754.168146 63.779469 1405.425474 43.155322 -28.171063 1077212 4940.064726
0.215000 0.215076 5231.505771 77.392732 1044.427970 33.263960 254.242286 1186908 4940.064726
0.225000 0.225076 4844.955415 53.759266 1001.695934 36.422495 286.951681 1299452 4940.064726
0.235000 0.235073 4570.939333 65.657490 872.748083 5.280532 261.499687 1417356 4940.064726
0.245000 0.245067 4295.648353 62.171750 822.089579 12.384346 210.734596 1539600 4940.064726
0.255000 0.255064 4003.325886 59.084581 626.678858 25.838207 414.776149 1669820 4940.064726
0.265000 0.265061 3754.667886 50.749397 476.355621 26.262760 146.538103 1801086 4940.064726
0.275000 0.275060 3577.369691 61.945898 412.073570 29.157145 342.442193 1942244 4940.064726
0.285000 0.285062 3269.064594 56.799985 252.476111 -19.880760 300.067108 2084796 4940.064726
0.295000 0.295057 3189.783988 52.510887 209.573556 9.518721 292.240493 2231868 4940.064726
