#Data file /home/DATA/sbrieden/Patchy_dr12_mocks/prerecon/original/Patchy-Mocks-DR12LOWZ-N-V5C-Portsmouth-mass_0063.dat
#Random file /home/DATA/sbrieden/Patchy_dr12_mocks/prerecon/original/Random-DR12LOWZ-N-V5C-x20.dat
#Number of data elements used: 232800
#Number of random elements used: 4685323
#Effective number of data elements weighted by wcol: 232800.000000
#Effective number of random elements weighted by wcol: 4685323.000000
#Effective number of data elements weighted by wcol*wsys: 232800.000000
#Effective number of random elements weighted by wcol*wsys: 4685323.000000
#Effective redshift value from data 0.330940
#Effective redshift value from randoms 0.330058
#Size of the Box 2500.000000 Mpc/h
#Area of the survey used 5826.000000 deg^2
#Value of alpha: 0.049804
#Normalization using data file
#Normalization using density
#Normalization 4.322734
#Shot noise factor 1.000000
#Shot noise value 3666.503197
#Type of Computation: FFT
#Number of grid cells: 512
#Type of Mass Assigment: TSC
#Type of Yamamoto: GridCenter
#Number of Interlacing steps: 2
#Grid Correction: yes
#Value of Om=0.310000
#Quadrupole as L2
#Octopole as L3
#Hexadecapole as L2L2
#k-centerbin	 k-eff	 Monopole-Pshotnoise	 Dipole	 Quadrupole	 Octopole	 Hexadecapole	 number of modes	 Pshotnoise
0.005000 0.007385 64516.899319 -12560.044126 -5562.361509 21924.776106 14276.636245 250 3666.503197
0.015000 0.016012 74912.703987 560.168155 23723.011205 -6292.934470 -27590.941221 1852 3666.503197
0.025000 0.025646 67159.790056 2739.605926 22425.153683 368.441168 -18855.084445 5020 3666.503197
0.035000 0.035469 49026.745284 2662.577780 12974.933111 4637.865777 15666.127162 9756 3666.503197
0.045000 0.045368 41854.987117 129.261410 9618.480441 543.800817 2099.102148 16108 3666.503197
0.055000 0.055314 36312.705708 1236.317376 13594.334343 -1006.288472 -2782.345677 24064 3666.503197
0.065000 0.065258 29528.032455 1080.001630 16788.680497 1407.827280 -814.120499 33396 3666.503197
0.075000 0.075209 25042.189677 21.148485 9895.131460 1184.581937 -1331.806131 44596 3666.503197
0.085000 0.085175 21013.189846 673.121190 6816.242926 767.253345 865.371645 57124 3666.503197
0.095000 0.095157 17504.175567 381.025839 5996.552325 115.444615 235.985790 71620 3666.503197
0.105000 0.105162 16186.379567 100.840312 4945.222257 351.454515 336.258068 87552 3666.503197
0.115000 0.115148 14326.654003 342.081356 3589.390805 102.401028 48.341429 104524 3666.503197
0.125000 0.125146 12766.094677 151.583460 3575.816051 45.378234 -172.963356 124228 3666.503197
0.135000 0.135146 11666.878830 213.267930 3859.999643 97.240847 -274.349194 144204 3666.503197
0.145000 0.145132 10291.252090 188.216567 2800.917932 304.537739 -12.597736 166492 3666.503197
0.155000 0.155114 9221.894219 111.898912 3022.948946 66.321876 423.875419 189964 3666.503197
0.165000 0.165102 8337.631099 132.445797 2243.181712 97.523306 161.395219 215640 3666.503197
0.175000 0.175105 7552.995985 110.888848 1852.667239 -2.023274 233.838931 242836 3666.503197
0.185000 0.185097 7049.697081 78.023135 1788.516908 122.859817 223.715113 270556 3666.503197
0.195000 0.195085 6700.526893 83.943195 1626.994820 3.265872 210.601462 301084 3666.503197
0.205000 0.205080 6069.569417 116.010636 1306.683402 97.416542 218.048092 332628 3666.503197
0.215000 0.215092 5525.457955 68.419007 1059.239268 19.903908 148.738353 367216 3666.503197
0.225000 0.225099 5259.704952 48.408928 928.728475 16.382192 186.944481 400444 3666.503197
0.235000 0.235081 4903.167289 85.478450 967.186293 30.147682 27.445140 436500 3666.503197
0.245000 0.245077 4558.550330 50.998769 568.485704 89.937653 45.149116 475900 3666.503197
0.255000 0.255082 4193.301306 63.182419 462.846943 4.779739 -81.046536 514900 3666.503197
0.265000 0.265074 4034.421621 46.941678 207.884067 61.917382 408.434353 555408 3666.503197
0.275000 0.275066 3748.435970 37.903079 97.716009 24.655911 208.198923 598684 3666.503197
0.285000 0.285066 3695.908766 60.819045 31.209297 -15.489693 -63.317851 643228 3666.503197
0.295000 0.295058 3292.303625 56.948855 -39.367135 12.258698 103.643899 688036 3666.503197
