#Data file /home/DATA/sbrieden/Patchy_dr12_mocks/prerecon/original/Patchy-Mocks-DR12LOWZ-S-V5C-Portsmouth-mass_0090.dat
#Random file /home/DATA/sbrieden/Patchy_dr12_mocks/prerecon/original/Random-DR12LOWZ-S-V5C-x20.dat
#Number of data elements used: 99761
#Number of random elements used: 2007904
#Effective number of data elements weighted by wcol: 99761.000000
#Effective number of random elements weighted by wcol: 2007904.000000
#Effective number of data elements weighted by wcol*wsys: 99761.000000
#Effective number of random elements weighted by wcol*wsys: 2007904.000000
#Effective redshift value from data 0.330079
#Effective redshift value from randoms 0.330155
#Size of the Box 2500.000000 Mpc/h
#Area of the survey used 2501.000000 deg^2
#Value of alpha: 0.049711
#Normalization using data file
#Normalization using density
#Normalization 1.850459
#Shot noise factor 1.000000
#Shot noise value 3656.783380
#Type of Computation: FFT
#Number of grid cells: 512
#Type of Mass Assigment: TSC
#Type of Yamamoto: GridCenter
#Number of Interlacing steps: 2
#Grid Correction: yes
#Value of Om=0.310000
#Quadrupole as L2
#Octopole as L3
#Hexadecapole as L2L2
#k-centerbin	 k-eff	 Monopole-Pshotnoise	 Dipole	 Quadrupole	 Octopole	 Hexadecapole	 number of modes	 Pshotnoise
0.005000 0.007385 24086.331518 -6309.420204 -7823.972882 -12935.032868 -18030.014632 250 3656.783380
0.015000 0.016012 60584.242468 -5131.466819 -12355.766362 -17315.849861 -34818.042318 1852 3656.783380
0.025000 0.025646 63235.938358 4250.302659 35746.660208 5167.429106 -12627.603508 5020 3656.783380
0.035000 0.035469 43517.314629 1072.598042 11405.037387 4872.058900 14406.403033 9756 3656.783380
0.045000 0.045368 41386.405036 1609.521948 15307.152875 -2622.323807 4218.692341 16108 3656.783380
0.055000 0.055314 32446.658699 772.442908 17408.731264 3739.809565 8935.604248 24064 3656.783380
0.065000 0.065258 27484.224108 301.343317 11752.714476 758.509840 11287.782645 33396 3656.783380
0.075000 0.075209 27438.087357 332.904094 9693.655718 1066.842205 3776.498264 44596 3656.783380
0.085000 0.085175 22723.380384 597.316586 4445.283836 835.406145 710.509043 57124 3656.783380
0.095000 0.095157 18758.102560 394.765412 5262.405848 -154.602679 2315.694109 71620 3656.783380
0.105000 0.105162 16692.699759 259.769750 2135.449323 321.103342 -2426.122170 87552 3656.783380
0.115000 0.115148 13902.512402 365.569738 4942.538421 -94.059316 1844.598540 104524 3656.783380
0.125000 0.125146 12421.258064 170.385490 3696.379269 312.420702 1593.563781 124228 3656.783380
0.135000 0.135146 11610.373374 133.733773 3797.647843 310.425325 1972.235335 144204 3656.783380
0.145000 0.145132 10457.087298 204.536106 2612.765692 -8.419924 1040.943424 166492 3656.783380
0.155000 0.155114 9065.147469 148.860762 2693.957193 127.201649 167.607892 189964 3656.783380
0.165000 0.165102 7950.600570 114.393222 2500.377323 -15.867787 -700.820900 215640 3656.783380
0.175000 0.175105 7808.882137 99.107397 2083.019289 102.556935 575.054633 242836 3656.783380
0.185000 0.185097 7067.983995 94.524678 1731.108907 69.028402 467.457946 270556 3656.783380
0.195000 0.195085 6619.913857 64.920095 1169.490237 105.121457 71.588482 301084 3656.783380
0.205000 0.205080 6057.166010 83.064005 893.153048 40.421840 91.241159 332628 3656.783380
0.215000 0.215092 5735.737039 94.143068 520.079870 101.081507 257.280335 367216 3656.783380
0.225000 0.225099 5150.831351 57.394246 766.633790 -2.338505 820.655678 400444 3656.783380
0.235000 0.235081 4784.692538 79.075404 820.557847 23.694535 294.607192 436500 3656.783380
0.245000 0.245077 4390.442810 73.633131 309.637908 10.617947 159.341326 475900 3656.783380
0.255000 0.255082 4196.027233 58.197431 354.896613 42.718124 471.585046 514900 3656.783380
0.265000 0.265074 3885.622300 51.714797 268.732495 17.437409 400.641083 555408 3656.783380
0.275000 0.275066 3657.755334 60.475352 362.208381 -74.078160 392.669231 598684 3656.783380
0.285000 0.285066 3535.076379 40.544685 183.612453 97.814120 199.494093 643228 3656.783380
0.295000 0.295058 3292.298991 50.155613 172.300823 -4.064424 286.910570 688036 3656.783380
