#Data file /home/DATA/sbrieden/Patchy_dr12_mocks/prerecon/original/Patchy-Mocks-DR12LOWZ-S-V5C-Portsmouth-mass_0018.dat
#Random file /home/DATA/sbrieden/Patchy_dr12_mocks/prerecon/original/Random-DR12LOWZ-S-V5C-x20.dat
#Number of data elements used: 101511
#Number of random elements used: 2007904
#Effective number of data elements weighted by wcol: 101511.000000
#Effective number of random elements weighted by wcol: 2007904.000000
#Effective number of data elements weighted by wcol*wsys: 101511.000000
#Effective number of random elements weighted by wcol*wsys: 2007904.000000
#Effective redshift value from data 0.329930
#Effective redshift value from randoms 0.330155
#Size of the Box 2500.000000 Mpc/h
#Area of the survey used 2501.000000 deg^2
#Value of alpha: 0.050539
#Normalization using data file
#Normalization using density
#Normalization 1.881676
#Shot noise factor 1.000000
#Shot noise value 3656.647061
#Type of Computation: FFT
#Number of grid cells: 512
#Type of Mass Assigment: TSC
#Type of Yamamoto: GridCenter
#Number of Interlacing steps: 2
#Grid Correction: yes
#Value of Om=0.310000
#Quadrupole as L2
#Octopole as L3
#Hexadecapole as L2L2
#k-centerbin	 k-eff	 Monopole-Pshotnoise	 Dipole	 Quadrupole	 Octopole	 Hexadecapole	 number of modes	 Pshotnoise
0.005000 0.007385 47784.562814 -14596.001338 -30032.476112 -2859.469900 -3506.932076 250 3656.647061
0.015000 0.016012 58952.418207 516.225058 -19582.306304 -15760.329783 -25949.328782 1852 3656.647061
0.025000 0.025646 52842.380007 2278.815535 6727.444522 -4113.404478 -35243.204258 5020 3656.647061
0.035000 0.035469 49264.559504 1637.559432 20881.577157 553.850990 9309.327979 9756 3656.647061
0.045000 0.045368 36005.240475 630.353056 15894.843538 3160.352665 1153.308466 16108 3656.647061
0.055000 0.055314 31490.363258 381.680473 6957.445268 -321.294655 -2377.569426 24064 3656.647061
0.065000 0.065258 31077.913971 768.367586 12237.967915 -181.427342 -39.788480 33396 3656.647061
0.075000 0.075209 25453.607613 333.703143 10902.032409 490.585349 -4793.480899 44596 3656.647061
0.085000 0.085175 22656.363001 589.586767 9836.374636 799.870864 -3289.446195 57124 3656.647061
0.095000 0.095157 17212.125523 616.130322 6989.807150 487.066658 -337.411072 71620 3656.647061
0.105000 0.105162 15304.930961 84.166351 4938.345174 593.784599 -818.416880 87552 3656.647061
0.115000 0.115148 14172.778660 296.745547 4288.007282 -401.417197 -2181.112738 104524 3656.647061
0.125000 0.125146 12417.730048 119.081635 3272.848442 644.734049 -1101.101938 124228 3656.647061
0.135000 0.135146 10983.001403 202.870764 2885.246752 126.495056 233.403076 144204 3656.647061
0.145000 0.145132 10395.392267 42.289596 1447.130763 168.882492 -289.441040 166492 3656.647061
0.155000 0.155114 9217.806997 213.272391 2272.897108 21.247430 160.201259 189964 3656.647061
0.165000 0.165102 8268.569358 169.770628 2334.397741 36.481620 386.388028 215640 3656.647061
0.175000 0.175105 7429.573772 70.493367 1197.080837 170.032739 209.545726 242836 3656.647061
0.185000 0.185097 6845.001820 124.448368 1143.951108 -6.864111 398.853823 270556 3656.647061
0.195000 0.195085 6536.985265 22.318350 1190.824710 82.436305 72.191640 301084 3656.647061
0.205000 0.205080 6146.602550 112.778294 1098.848683 -98.320781 -170.056997 332628 3656.647061
0.215000 0.215092 5711.512874 90.586841 1029.784653 46.412119 -157.533047 367216 3656.647061
0.225000 0.225099 5270.683028 45.100106 908.569795 104.518794 -291.603088 400444 3656.647061
0.235000 0.235081 4913.595591 84.934123 822.032772 -23.340381 -65.309467 436500 3656.647061
0.245000 0.245077 4582.359762 46.184479 597.041378 60.261286 231.773038 475900 3656.647061
0.255000 0.255082 4313.256635 70.161863 401.805307 49.708234 168.287640 514900 3656.647061
0.265000 0.265074 4040.850100 59.241432 432.852285 -2.753991 376.058515 555408 3656.647061
0.275000 0.275066 3751.186727 49.559906 406.693387 -28.614020 -56.279894 598684 3656.647061
0.285000 0.285066 3625.048400 57.549046 126.152702 44.344272 29.945740 643228 3656.647061
0.295000 0.295058 3282.187123 59.536290 5.008162 58.577243 269.485742 688036 3656.647061
