#Data file /home/DATA/sbrieden/Patchy_dr12_mocks/prerecon/original/Patchy-Mocks-DR12LOWZ-S-V5C-Portsmouth-mass_0093.dat
#Random file /home/DATA/sbrieden/Patchy_dr12_mocks/prerecon/original/Random-DR12LOWZ-S-V5C-x20.dat
#Number of data elements used: 99803
#Number of random elements used: 2007904
#Effective number of data elements weighted by wcol: 99803.000000
#Effective number of random elements weighted by wcol: 2007904.000000
#Effective number of data elements weighted by wcol*wsys: 99803.000000
#Effective number of random elements weighted by wcol*wsys: 2007904.000000
#Effective redshift value from data 0.330410
#Effective redshift value from randoms 0.330155
#Size of the Box 2500.000000 Mpc/h
#Area of the survey used 2501.000000 deg^2
#Value of alpha: 0.049727
#Normalization using data file
#Normalization using density
#Normalization 1.851091
#Shot noise factor 1.000000
#Shot noise value 3656.361676
#Type of Computation: FFT
#Number of grid cells: 512
#Type of Mass Assigment: TSC
#Type of Yamamoto: GridCenter
#Number of Interlacing steps: 2
#Grid Correction: yes
#Value of Om=0.310000
#Quadrupole as L2
#Octopole as L3
#Hexadecapole as L2L2
#k-centerbin	 k-eff	 Monopole-Pshotnoise	 Dipole	 Quadrupole	 Octopole	 Hexadecapole	 number of modes	 Pshotnoise
0.005000 0.007385 106237.102466 -9233.492192 -43774.065958 -42650.130663 -87779.480222 250 3656.361676
0.015000 0.016012 77055.775092 3107.238695 -33064.709156 -19352.360037 -22499.497740 1852 3656.361676
0.025000 0.025646 58326.208452 2232.201606 7936.067054 -1127.035465 -5273.734668 5020 3656.361676
0.035000 0.035469 51075.833459 -161.356950 10310.759248 -1230.043459 -11381.265380 9756 3656.361676
0.045000 0.045368 39368.930899 2644.888467 16122.421317 4158.179412 9894.343722 16108 3656.361676
0.055000 0.055314 34401.566030 -165.022544 12233.924954 824.475990 6535.689925 24064 3656.361676
0.065000 0.065258 30592.751902 901.402624 8175.884501 753.640929 3996.144856 33396 3656.361676
0.075000 0.075209 26093.900718 670.465310 8966.749485 -238.374466 -230.608247 44596 3656.361676
0.085000 0.085175 21055.493250 468.860265 9219.740799 981.631680 -1679.063417 57124 3656.361676
0.095000 0.095157 17650.540782 437.929039 4098.647691 -154.386005 -2474.769618 71620 3656.361676
0.105000 0.105162 15555.918115 290.385076 5563.587039 615.938016 2795.923735 87552 3656.361676
0.115000 0.115148 14558.553264 163.630737 4593.040466 383.447727 2458.038690 104524 3656.361676
0.125000 0.125146 12681.201973 147.476241 2960.723279 42.038117 -733.806603 124228 3656.361676
0.135000 0.135146 11678.082410 198.113554 3119.216763 74.712180 -745.498737 144204 3656.361676
0.145000 0.145132 10294.413031 174.076753 2700.204647 14.340448 343.713726 166492 3656.361676
0.155000 0.155114 9535.400758 128.722825 2668.387999 261.134157 -20.057321 189964 3656.361676
0.165000 0.165102 8203.533684 187.177865 2447.837668 17.320464 1281.161330 215640 3656.361676
0.175000 0.175105 7260.008280 86.305755 2011.396467 45.204304 -403.828962 242836 3656.361676
0.185000 0.185097 7072.915086 65.500859 2046.437075 163.837672 550.428203 270556 3656.361676
0.195000 0.195085 6667.827249 50.711496 1408.893482 67.664578 477.334301 301084 3656.361676
0.205000 0.205080 6214.381982 110.733388 1390.803629 -8.470513 469.022971 332628 3656.361676
0.215000 0.215092 5467.568133 89.056977 1012.020677 96.353998 -124.710698 367216 3656.361676
0.225000 0.225099 5123.076818 79.031015 744.508247 -36.079087 84.788005 400444 3656.361676
0.235000 0.235081 4818.538256 34.856640 795.524202 60.560938 128.368060 436500 3656.361676
0.245000 0.245077 4669.958938 71.635077 740.224552 28.183495 363.077088 475900 3656.361676
0.255000 0.255082 4176.694694 81.755771 613.759046 -29.670772 -167.692239 514900 3656.361676
0.265000 0.265074 4013.172621 39.934341 632.706880 68.542208 150.536415 555408 3656.361676
0.275000 0.275066 3874.600126 45.079090 684.899011 -37.288170 -118.016039 598684 3656.361676
0.285000 0.285066 3626.840236 68.866840 451.590942 45.007765 -192.223627 643228 3656.361676
0.295000 0.295058 3458.528248 26.555440 273.937197 115.756883 209.895996 688036 3656.361676
