#Data file /home/DATA/sbrieden/Patchy_dr12_mocks/prerecon/original/Patchy-Mocks-DR12LOWZ-S-V5C-Portsmouth-mass_0020.dat
#Random file /home/DATA/sbrieden/Patchy_dr12_mocks/prerecon/original/Random-DR12LOWZ-S-V5C-x20.dat
#Number of data elements used: 101042
#Number of random elements used: 2007904
#Effective number of data elements weighted by wcol: 101042.000000
#Effective number of random elements weighted by wcol: 2007904.000000
#Effective number of data elements weighted by wcol*wsys: 101042.000000
#Effective number of random elements weighted by wcol*wsys: 2007904.000000
#Effective redshift value from data 0.329435
#Effective redshift value from randoms 0.330155
#Size of the Box 2500.000000 Mpc/h
#Area of the survey used 2501.000000 deg^2
#Value of alpha: 0.050326
#Normalization using data file
#Normalization using density
#Normalization 1.873725
#Shot noise factor 1.000000
#Shot noise value 3656.007521
#Type of Computation: FFT
#Number of grid cells: 512
#Type of Mass Assigment: TSC
#Type of Yamamoto: GridCenter
#Number of Interlacing steps: 2
#Grid Correction: yes
#Value of Om=0.310000
#Quadrupole as L2
#Octopole as L3
#Hexadecapole as L2L2
#k-centerbin	 k-eff	 Monopole-Pshotnoise	 Dipole	 Quadrupole	 Octopole	 Hexadecapole	 number of modes	 Pshotnoise
0.005000 0.007385 50137.681520 -2905.514557 6044.644574 -23134.504090 -14113.276724 250 3656.007521
0.015000 0.016012 77352.338996 3981.358511 28116.622675 2144.280425 -8871.175375 1852 3656.007521
0.025000 0.025646 59738.774541 816.082479 41274.906866 12181.354181 2522.862205 5020 3656.007521
0.035000 0.035469 49283.711020 2057.512528 23543.257546 6730.289346 30108.091814 9756 3656.007521
0.045000 0.045368 39919.726571 645.055154 18011.337674 -518.371421 10583.184844 16108 3656.007521
0.055000 0.055314 37518.970800 677.613669 5661.424691 1924.790130 2160.236226 24064 3656.007521
0.065000 0.065258 32372.235006 520.560538 8791.916965 139.158586 7058.591116 33396 3656.007521
0.075000 0.075209 27900.835065 645.442035 9257.729191 455.441622 -1520.380791 44596 3656.007521
0.085000 0.085175 21053.582267 760.877332 5244.729946 482.218300 -1533.268702 57124 3656.007521
0.095000 0.095157 18170.225850 177.667054 2593.616618 200.265564 -901.549309 71620 3656.007521
0.105000 0.105162 16523.491440 326.959268 5941.025874 158.031050 2912.400917 87552 3656.007521
0.115000 0.115148 14590.248555 313.037262 4798.579095 -35.474150 -619.260782 104524 3656.007521
0.125000 0.125146 13358.610686 77.993830 4130.750364 327.427951 565.169642 124228 3656.007521
0.135000 0.135146 11933.114793 304.919308 2606.318976 317.678577 421.110302 144204 3656.007521
0.145000 0.145132 10071.932400 145.508046 1922.158084 127.778220 427.010805 166492 3656.007521
0.155000 0.155114 9035.568810 156.741698 1995.743048 42.730588 785.193926 189964 3656.007521
0.165000 0.165102 8525.772469 132.542092 2219.868524 -71.193178 282.495426 215640 3656.007521
0.175000 0.175105 7765.189864 76.882600 2164.696899 238.770965 355.565558 242836 3656.007521
0.185000 0.185097 7154.189093 74.884986 1452.569183 57.231151 807.590369 270556 3656.007521
0.195000 0.195085 6692.879075 120.543117 1570.199226 1.305721 292.539070 301084 3656.007521
0.205000 0.205080 5925.448642 109.691335 1498.616598 51.472605 384.609976 332628 3656.007521
0.215000 0.215092 5596.069853 41.279303 1008.245280 24.980108 -228.248312 367216 3656.007521
0.225000 0.225099 5274.341543 116.082665 1249.236200 23.082933 83.913869 400444 3656.007521
0.235000 0.235081 4849.596410 22.763122 454.386025 32.763820 15.502883 436500 3656.007521
0.245000 0.245077 4715.701107 87.940639 905.238669 42.082179 40.177440 475900 3656.007521
0.255000 0.255082 4210.095218 47.486096 599.680627 53.888880 188.991014 514900 3656.007521
0.265000 0.265074 4034.639050 65.413948 590.302273 60.592916 332.543061 555408 3656.007521
0.275000 0.275066 3665.230622 62.809997 97.586365 -5.167867 343.314476 598684 3656.007521
0.285000 0.285066 3408.874118 40.948133 113.757729 -4.384540 140.581861 643228 3656.007521
0.295000 0.295058 3346.377509 52.577760 -79.376484 20.804003 -174.783456 688036 3656.007521
