#Data file /home/DATA/sbrieden/Patchy_dr12_mocks/prerecon/original/Patchy-Mocks-DR12LOWZ-N-V5C-Portsmouth-mass_0002.dat
#Random file /home/DATA/sbrieden/Patchy_dr12_mocks/prerecon/original/Random-DR12LOWZ-N-V5C-x20.dat
#Number of data elements used: 233849
#Number of random elements used: 4685323
#Effective number of data elements weighted by wcol: 233849.000000
#Effective number of random elements weighted by wcol: 4685323.000000
#Effective number of data elements weighted by wcol*wsys: 233849.000000
#Effective number of random elements weighted by wcol*wsys: 4685323.000000
#Effective redshift value from data 0.330097
#Effective redshift value from randoms 0.330058
#Size of the Box 2500.000000 Mpc/h
#Area of the survey used 5826.000000 deg^2
#Value of alpha: 0.049912
#Normalization using data file
#Normalization using density
#Normalization 4.335935
#Shot noise factor 1.000000
#Shot noise value 3654.882352
#Type of Computation: FFT
#Number of grid cells: 512
#Type of Mass Assigment: TSC
#Type of Yamamoto: GridCenter
#Number of Interlacing steps: 2
#Grid Correction: yes
#Value of Om=0.310000
#Quadrupole as L2
#Octopole as L3
#Hexadecapole as L2L2
#k-centerbin	 k-eff	 Monopole-Pshotnoise	 Dipole	 Quadrupole	 Octopole	 Hexadecapole	 number of modes	 Pshotnoise
0.005000 0.007385 61125.329585 -24163.554370 -23280.041375 -12914.602329 51593.087106 250 3654.882352
0.015000 0.016012 84337.190709 5266.406540 8149.542289 -12206.664115 -35359.609373 1852 3654.882352
0.025000 0.025646 63291.295227 2302.519439 18867.179192 1112.888580 -14028.490073 5020 3654.882352
0.035000 0.035469 51634.714293 2696.370109 24931.810200 2391.809034 -2372.403973 9756 3654.882352
0.045000 0.045368 39595.928937 1136.073245 15436.344865 2064.213132 -2945.561451 16108 3654.882352
0.055000 0.055314 31735.547864 614.755072 9821.879729 319.428001 -3588.370640 24064 3654.882352
0.065000 0.065258 28757.866279 349.151614 7558.624817 911.755018 -4428.809129 33396 3654.882352
0.075000 0.075209 25764.363987 562.841131 8261.663037 338.104056 1018.275044 44596 3654.882352
0.085000 0.085175 21304.599270 580.566281 7639.510507 323.000475 -1440.437504 57124 3654.882352
0.095000 0.095157 18344.997346 247.607680 6580.688076 692.810344 2312.978757 71620 3654.882352
0.105000 0.105162 15808.768069 312.489933 5103.204814 300.660673 1016.413080 87552 3654.882352
0.115000 0.115148 13739.971481 298.931838 3789.779228 211.645939 1208.288542 104524 3654.882352
0.125000 0.125146 12238.960787 192.860020 3572.951741 125.861536 489.941628 124228 3654.882352
0.135000 0.135146 11436.250210 168.636260 2757.623755 114.737456 91.685830 144204 3654.882352
0.145000 0.145132 10090.709074 125.331138 2610.267614 120.077288 3.286419 166492 3654.882352
0.155000 0.155114 9131.613966 140.181376 2430.637444 110.089676 905.084313 189964 3654.882352
0.165000 0.165102 8273.413699 129.548794 2009.433377 72.036843 -21.734416 215640 3654.882352
0.175000 0.175105 7554.871144 96.065987 2020.608083 138.623477 378.291613 242836 3654.882352
0.185000 0.185097 6898.444716 103.187937 1363.217081 23.562261 661.643875 270556 3654.882352
0.195000 0.195085 6427.955064 88.758192 1477.386242 -30.007678 208.170357 301084 3654.882352
0.205000 0.205080 6066.834913 82.263175 1203.003719 150.485039 433.007065 332628 3654.882352
0.215000 0.215092 5505.111381 78.572810 1114.355138 2.308297 375.263905 367216 3654.882352
0.225000 0.225099 5163.023902 81.998974 1123.514218 37.547945 90.659462 400444 3654.882352
0.235000 0.235081 4806.673657 43.574452 811.602192 -19.827622 132.002462 436500 3654.882352
0.245000 0.245077 4547.754948 61.345728 648.439408 117.033992 266.160827 475900 3654.882352
0.255000 0.255082 4175.047817 71.167694 491.210529 -2.625624 186.116982 514900 3654.882352
0.265000 0.265074 3903.348354 60.269889 390.177971 -8.050586 53.013937 555408 3654.882352
0.275000 0.275066 3698.508591 44.023385 283.006024 18.724103 73.146051 598684 3654.882352
0.285000 0.285066 3470.306727 50.947006 259.472801 49.307680 102.017371 643228 3654.882352
0.295000 0.295058 3274.108239 60.133937 17.711011 40.386408 256.216594 688036 3654.882352
