#Data file /home/DATA/sbrieden/Patchy_dr12_mocks/prerecon/original/Patchy-Mocks-DR12CMASS-N-V6C-Portsmouth-mass_0066.dat
#Random file /home/DATA/sbrieden/Patchy_dr12_mocks/prerecon/original/Random-DR12CMASS-N-V6C-x20.dat
#Number of data elements used: 594331
#Number of random elements used: 11797448
#Effective number of data elements weighted by wcol: 594331.000000
#Effective number of random elements weighted by wcol: 11797448.000000
#Effective number of data elements weighted by wcol*wsys: 594331.000000
#Effective number of random elements weighted by wcol*wsys: 11797448.000000
#Effective redshift value from data 0.597636
#Effective redshift value from randoms 0.597992
#Size of the Box 3700.000000 Mpc/h
#Area of the survey used 6851.000000 deg^2
#Value of alpha: 0.050300
#Normalization using data file
#Normalization using density
#Normalization 11.168419
#Shot noise factor 1.000000
#Shot noise value 4923.543012
#Type of Computation: FFT
#Number of grid cells: 512
#Type of Mass Assigment: TSC
#Type of Yamamoto: GridCenter
#Number of Interlacing steps: 2
#Grid Correction: yes
#Value of Om=0.310000
#Quadrupole as L2
#Octopole as L3
#Hexadecapole as L2L2
#k-centerbin	 k-eff	 Monopole-Pshotnoise	 Dipole	 Quadrupole	 Octopole	 Hexadecapole	 number of modes	 Pshotnoise
0.005000 0.007485 55418.435012 -2060.391027 -12723.485102 -16270.274729 -36090.793934 846 4923.543012
0.015000 0.016072 71484.804586 -1156.355720 19041.048909 3401.630452 -11279.286829 6012 4923.543012
0.025000 0.025646 63806.241266 2527.252103 23951.335629 1230.945301 11524.790417 16172 4923.543012
0.035000 0.035469 48032.508762 1039.799445 18216.006917 959.576689 -1487.341480 31764 4923.543012
0.045000 0.045378 36305.586053 627.258788 14186.811699 1217.065614 -509.989349 52164 4923.543012
0.055000 0.055280 31206.724043 444.118397 12183.098423 1049.783392 6621.434481 77396 4923.543012
0.065000 0.065232 28059.980634 287.654785 11815.647505 -17.539582 4883.735990 108936 4923.543012
0.075000 0.075229 24230.587922 285.854804 9920.975351 784.082287 4258.030788 144980 4923.543012
0.085000 0.085193 20775.002404 335.098265 7875.145603 342.518390 1711.090223 184854 4923.543012
0.095000 0.095166 17142.440721 228.633377 5076.477114 255.927791 1381.285545 232260 4923.543012
0.105000 0.105155 14750.158341 215.857844 5058.204773 3.838036 1346.381772 282884 4923.543012
0.115000 0.115131 13487.054654 105.104030 5638.214236 150.376402 658.762961 339084 4923.543012
0.125000 0.125124 12038.423478 123.821907 4689.485885 277.300583 929.960004 401864 4923.543012
0.135000 0.135125 10807.664422 141.392371 3432.918536 51.438382 1261.566402 468084 4923.543012
0.145000 0.145120 9816.728469 116.341243 3495.439352 72.324860 533.804254 539940 4923.543012
0.155000 0.155118 8637.751600 96.591640 2799.174096 58.088444 173.016725 617324 4923.543012
0.165000 0.165105 7762.566503 84.387342 2586.036533 84.064116 72.672701 697452 4923.543012
0.175000 0.175088 7181.049540 78.351373 1897.862857 85.675223 512.811470 785846 4923.543012
0.185000 0.185089 6807.496910 73.082436 1770.746079 18.230221 26.181830 879528 4923.543012
0.195000 0.195093 6204.417477 74.978526 1564.225868 36.196866 330.141416 976596 4923.543012
0.205000 0.205084 5711.545663 70.191476 1400.568714 32.872979 208.631290 1077212 4923.543012
0.215000 0.215076 5424.259753 71.152807 1182.884529 30.745836 493.127493 1186908 4923.543012
0.225000 0.225076 4935.119403 58.909998 992.270338 29.822476 344.486666 1299452 4923.543012
0.235000 0.235073 4618.999083 59.643615 919.133257 49.499473 335.441270 1417356 4923.543012
0.245000 0.245067 4330.686913 56.185761 727.887067 0.081384 343.728956 1539600 4923.543012
0.255000 0.255064 4104.666257 68.162451 802.046115 8.283107 395.686582 1669820 4923.543012
0.265000 0.265061 3811.606455 52.622514 490.518191 30.776555 94.683080 1801086 4923.543012
0.275000 0.275060 3607.088204 50.137470 372.314687 19.352674 102.241496 1942244 4923.543012
0.285000 0.285062 3404.385886 70.099569 358.059383 -11.457315 152.328849 2084796 4923.543012
0.295000 0.295057 3148.564019 45.076341 135.597879 42.833762 184.200964 2231868 4923.543012
