#Data file /home/DATA/sbrieden/Patchy_dr12_mocks/prerecon/original/Patchy-Mocks-DR12CMASS-N-V6C-Portsmouth-mass_0020.dat
#Random file /home/DATA/sbrieden/Patchy_dr12_mocks/prerecon/original/Random-DR12CMASS-N-V6C-x20.dat
#Number of data elements used: 593903
#Number of random elements used: 11797448
#Effective number of data elements weighted by wcol: 593903.000000
#Effective number of random elements weighted by wcol: 11797448.000000
#Effective number of data elements weighted by wcol*wsys: 593903.000000
#Effective number of random elements weighted by wcol*wsys: 11797448.000000
#Effective redshift value from data 0.597314
#Effective redshift value from randoms 0.597992
#Size of the Box 3700.000000 Mpc/h
#Area of the survey used 6851.000000 deg^2
#Value of alpha: 0.050162
#Normalization using data file
#Normalization using density
#Normalization 11.142898
#Shot noise factor 1.000000
#Shot noise value 4915.980700
#Type of Computation: FFT
#Number of grid cells: 512
#Type of Mass Assigment: TSC
#Type of Yamamoto: GridCenter
#Number of Interlacing steps: 2
#Grid Correction: yes
#Value of Om=0.310000
#Quadrupole as L2
#Octopole as L3
#Hexadecapole as L2L2
#k-centerbin	 k-eff	 Monopole-Pshotnoise	 Dipole	 Quadrupole	 Octopole	 Hexadecapole	 number of modes	 Pshotnoise
0.005000 0.007485 61127.094494 -2437.942458 31915.454285 19159.624192 26173.696727 846 4915.980700
0.015000 0.016072 65805.313930 1093.223594 13302.042834 -12.492833 -8131.023596 6012 4915.980700
0.025000 0.025646 56749.366048 826.817536 21815.277386 3260.374236 10389.732500 16172 4915.980700
0.035000 0.035469 51437.620283 1100.472402 12663.561315 -644.782736 -643.089357 31764 4915.980700
0.045000 0.045378 38333.796658 717.123737 15967.058044 1088.091005 -2251.962356 52164 4915.980700
0.055000 0.055280 32508.295017 460.099974 11905.870469 857.243352 641.428869 77396 4915.980700
0.065000 0.065232 28060.803036 346.564287 9641.771011 374.967967 2626.589771 108936 4915.980700
0.075000 0.075229 24538.826122 303.123732 7125.110819 280.751612 -170.839645 144980 4915.980700
0.085000 0.085193 20351.290050 312.888643 7533.800422 262.304388 2236.161671 184854 4915.980700
0.095000 0.095166 17075.535702 266.344018 6365.899520 349.894314 1817.934419 232260 4915.980700
0.105000 0.105155 14505.320240 161.839073 5223.625575 94.105832 746.178696 282884 4915.980700
0.115000 0.115131 13108.413956 134.768104 4163.357745 49.930841 -32.024153 339084 4915.980700
0.125000 0.125124 11937.721117 122.308504 3993.041262 178.461636 456.026353 401864 4915.980700
0.135000 0.135125 10779.007603 109.337591 3268.634538 103.316516 146.863271 468084 4915.980700
0.145000 0.145120 9746.938629 108.913842 3001.937562 118.876246 895.239923 539940 4915.980700
0.155000 0.155118 8736.292768 125.524540 2187.338669 -4.477327 159.615254 617324 4915.980700
0.165000 0.165105 7971.725589 71.377659 2202.096190 139.909830 205.601394 697452 4915.980700
0.175000 0.175088 7094.399892 81.002026 1823.745085 21.047128 75.321118 785846 4915.980700
0.185000 0.185089 6742.986496 77.376751 1687.127514 17.228358 308.176847 879528 4915.980700
0.195000 0.195093 6153.440300 76.797298 1236.736817 66.050706 259.023947 976596 4915.980700
0.205000 0.205084 5753.846648 57.571183 1112.220627 34.728815 453.883903 1077212 4915.980700
0.215000 0.215076 5334.588451 76.851635 1005.724672 13.813988 224.525509 1186908 4915.980700
0.225000 0.225076 4950.260947 50.468284 795.581212 32.827726 231.673801 1299452 4915.980700
0.235000 0.235073 4598.751190 70.633316 628.822775 4.986871 117.435065 1417356 4915.980700
0.245000 0.245067 4338.739381 60.147079 509.537517 12.381572 140.917787 1539600 4915.980700
0.255000 0.255064 4021.762727 67.195856 510.520626 -4.068527 203.200618 1669820 4915.980700
0.265000 0.265061 3791.198483 46.360561 465.002429 32.283650 100.992973 1801086 4915.980700
0.275000 0.275060 3563.172393 57.350444 257.855598 30.361381 148.102755 1942244 4915.980700
0.285000 0.285062 3378.881809 50.271902 181.426216 10.366788 320.521524 2084796 4915.980700
0.295000 0.295057 3166.656660 67.125462 171.601203 0.420652 207.004687 2231868 4915.980700
