#Data file /home/DATA/sbrieden/Patchy_dr12_mocks/prerecon/original/Patchy-Mocks-DR12LOWZ-N-V5C-Portsmouth-mass_0060.dat
#Random file /home/DATA/sbrieden/Patchy_dr12_mocks/prerecon/original/Random-DR12LOWZ-N-V5C-x20.dat
#Number of data elements used: 234654
#Number of random elements used: 4685323
#Effective number of data elements weighted by wcol: 234654.000000
#Effective number of random elements weighted by wcol: 4685323.000000
#Effective number of data elements weighted by wcol*wsys: 234654.000000
#Effective number of random elements weighted by wcol*wsys: 4685323.000000
#Effective redshift value from data 0.329862
#Effective redshift value from randoms 0.330058
#Size of the Box 2500.000000 Mpc/h
#Area of the survey used 5826.000000 deg^2
#Value of alpha: 0.050059
#Normalization using data file
#Normalization using density
#Normalization 4.349789
#Shot noise factor 1.000000
#Shot noise value 3652.057522
#Type of Computation: FFT
#Number of grid cells: 512
#Type of Mass Assigment: TSC
#Type of Yamamoto: GridCenter
#Number of Interlacing steps: 2
#Grid Correction: yes
#Value of Om=0.310000
#Quadrupole as L2
#Octopole as L3
#Hexadecapole as L2L2
#k-centerbin	 k-eff	 Monopole-Pshotnoise	 Dipole	 Quadrupole	 Octopole	 Hexadecapole	 number of modes	 Pshotnoise
0.005000 0.007385 42078.239076 -15725.080874 -45737.146545 -12814.518276 40380.910054 250 3652.057522
0.015000 0.016012 76253.627409 6367.767131 16836.332035 -8036.088324 -28528.529799 1852 3652.057522
0.025000 0.025646 52984.556131 863.200617 28555.774596 6631.809730 8791.252064 5020 3652.057522
0.035000 0.035469 50159.079373 1297.353942 12195.448846 2688.676294 -3892.983786 9756 3652.057522
0.045000 0.045368 39974.493294 1255.080941 13878.688625 -561.276264 5090.635402 16108 3652.057522
0.055000 0.055314 34000.924576 875.459255 12372.751678 2645.953061 3240.602690 24064 3652.057522
0.065000 0.065258 28205.052843 477.056547 12007.175121 841.861128 3669.533927 33396 3652.057522
0.075000 0.075209 26024.638656 412.537794 9345.867963 103.939670 945.571618 44596 3652.057522
0.085000 0.085175 21855.129207 536.059376 7827.890793 812.903521 -1659.627856 57124 3652.057522
0.095000 0.095157 18316.805091 536.315133 4856.033692 697.940170 3144.147857 71620 3652.057522
0.105000 0.105162 15615.917030 250.539989 5686.156353 -51.360773 2123.557439 87552 3652.057522
0.115000 0.115148 14101.481797 117.673456 5414.854244 672.965649 2125.082367 104524 3652.057522
0.125000 0.125146 12864.645683 219.186435 4534.880171 -36.794364 923.645772 124228 3652.057522
0.135000 0.135146 11532.964712 176.386485 3447.875431 425.135643 906.316493 144204 3652.057522
0.145000 0.145132 10166.167704 213.019380 2824.591336 103.313264 994.125532 166492 3652.057522
0.155000 0.155114 9188.564779 134.945143 2273.755768 -122.146476 6.688451 189964 3652.057522
0.165000 0.165102 8439.819227 127.711809 2354.346868 88.627944 -344.650271 215640 3652.057522
0.175000 0.175105 7458.329710 96.493181 2093.182080 34.191812 185.233417 242836 3652.057522
0.185000 0.185097 7265.131714 57.239229 1810.658935 226.016294 189.977654 270556 3652.057522
0.195000 0.195085 6669.362901 91.529750 1572.463791 -34.484325 508.646785 301084 3652.057522
0.205000 0.205080 6129.868154 93.061600 1374.103054 105.975561 369.208384 332628 3652.057522
0.215000 0.215092 5652.129935 91.144057 818.039665 44.835635 338.058254 367216 3652.057522
0.225000 0.225099 5248.628291 70.302883 1032.365070 15.861858 448.921334 400444 3652.057522
0.235000 0.235081 4853.963608 61.057628 857.862804 106.985103 623.933405 436500 3652.057522
0.245000 0.245077 4476.370367 63.062410 628.715301 -5.027234 537.274955 475900 3652.057522
0.255000 0.255082 4210.412826 68.450706 537.814526 13.717157 343.883071 514900 3652.057522
0.265000 0.265074 3950.719304 58.732270 371.701377 60.184252 335.243708 555408 3652.057522
0.275000 0.275066 3714.380889 37.513281 235.733956 14.707857 89.336773 598684 3652.057522
0.285000 0.285066 3570.329933 59.574628 265.277842 -36.154263 309.875430 643228 3652.057522
0.295000 0.295058 3333.555193 61.186010 215.260255 31.968900 297.305363 688036 3652.057522
