#Data file /home/DATA/sbrieden/Patchy_dr12_mocks/prerecon/original/Patchy-Mocks-DR12LOWZ-S-V5C-Portsmouth-mass_0088.dat
#Random file /home/DATA/sbrieden/Patchy_dr12_mocks/prerecon/original/Random-DR12LOWZ-S-V5C-x20.dat
#Number of data elements used: 99872
#Number of random elements used: 2007904
#Effective number of data elements weighted by wcol: 99872.000000
#Effective number of random elements weighted by wcol: 2007904.000000
#Effective number of data elements weighted by wcol*wsys: 99872.000000
#Effective number of random elements weighted by wcol*wsys: 2007904.000000
#Effective redshift value from data 0.330003
#Effective redshift value from randoms 0.330155
#Size of the Box 2500.000000 Mpc/h
#Area of the survey used 2501.000000 deg^2
#Value of alpha: 0.049629
#Normalization using data file
#Normalization using density
#Normalization 1.848933
#Shot noise factor 1.000000
#Shot noise value 3645.059381
#Type of Computation: FFT
#Number of grid cells: 512
#Type of Mass Assigment: TSC
#Type of Yamamoto: GridCenter
#Number of Interlacing steps: 2
#Grid Correction: yes
#Value of Om=0.310000
#Quadrupole as L2
#Octopole as L3
#Hexadecapole as L2L2
#k-centerbin	 k-eff	 Monopole-Pshotnoise	 Dipole	 Quadrupole	 Octopole	 Hexadecapole	 number of modes	 Pshotnoise
0.005000 0.007385 57102.818531 -6121.278859 51817.238939 -6268.582438 -78168.451091 250 3645.059381
0.015000 0.016012 67419.724298 2156.037524 54205.075757 7639.205067 -12773.510869 1852 3645.059381
0.025000 0.025646 67303.199028 2822.195862 17776.425669 4142.187405 -19826.304402 5020 3645.059381
0.035000 0.035469 49517.574614 1146.822877 19408.996720 -11.771874 6315.583368 9756 3645.059381
0.045000 0.045368 40541.302959 2089.362327 10290.404394 310.060686 -3829.265401 16108 3645.059381
0.055000 0.055314 35269.182837 -242.064874 14853.585551 2900.181724 -3906.561283 24064 3645.059381
0.065000 0.065258 30315.616618 737.104221 10582.828233 47.334027 2850.837849 33396 3645.059381
0.075000 0.075209 25408.104140 931.718412 7624.268514 76.256882 -826.996522 44596 3645.059381
0.085000 0.085175 20990.671777 487.783519 7935.322576 1071.320032 -562.289087 57124 3645.059381
0.095000 0.095157 17108.174125 389.233032 7108.016790 -417.634692 -975.324948 71620 3645.059381
0.105000 0.105162 15819.698075 223.500983 5446.965405 837.210791 702.557400 87552 3645.059381
0.115000 0.115148 14138.643407 172.541560 5941.080670 -148.794055 1019.505559 104524 3645.059381
0.125000 0.125146 13352.606763 223.812535 6223.563891 282.519064 -254.161234 124228 3645.059381
0.135000 0.135146 11400.441115 215.750114 4554.080638 655.702291 631.667915 144204 3645.059381
0.145000 0.145132 10260.218764 94.375449 3483.035234 -148.668608 -447.434713 166492 3645.059381
0.155000 0.155114 9285.816097 203.118542 3849.182356 265.196610 120.388165 189964 3645.059381
0.165000 0.165102 8125.177901 122.730057 2359.209296 258.848789 707.566847 215640 3645.059381
0.175000 0.175105 7539.429837 78.301749 1583.886323 100.713372 155.509083 242836 3645.059381
0.185000 0.185097 7083.204519 80.837186 1488.589508 0.438515 613.109620 270556 3645.059381
0.195000 0.195085 6576.998623 86.164635 997.702520 112.967130 316.045933 301084 3645.059381
0.205000 0.205080 6138.613749 110.102849 1262.554775 -27.452742 -16.927879 332628 3645.059381
0.215000 0.215092 5567.174481 76.884442 938.043359 -23.523474 -313.958899 367216 3645.059381
0.225000 0.225099 5123.360464 35.638432 423.417100 105.726230 -40.572887 400444 3645.059381
0.235000 0.235081 4894.029217 93.395504 538.945026 23.326757 99.236615 436500 3645.059381
0.245000 0.245077 4296.234386 69.297213 518.924433 13.091991 318.274227 475900 3645.059381
0.255000 0.255082 4134.925745 31.473888 470.384808 3.637329 14.379231 514900 3645.059381
0.265000 0.265074 4107.423707 61.617623 496.790371 -29.963461 -167.587675 555408 3645.059381
0.275000 0.275066 3772.106550 56.395363 314.217446 67.113949 -287.642208 598684 3645.059381
0.285000 0.285066 3345.846198 77.043530 136.025536 42.984544 -226.594056 643228 3645.059381
0.295000 0.295058 3251.295105 27.907198 57.700300 -51.081554 97.650687 688036 3645.059381
