#Data file /home/DATA/sbrieden/Patchy_dr12_mocks/prerecon/original/Patchy-Mocks-DR12LOWZ-N-V5C-Portsmouth-mass_0039.dat
#Random file /home/DATA/sbrieden/Patchy_dr12_mocks/prerecon/original/Random-DR12LOWZ-N-V5C-x20.dat
#Number of data elements used: 235657
#Number of random elements used: 4685323
#Effective number of data elements weighted by wcol: 235657.000000
#Effective number of random elements weighted by wcol: 4685323.000000
#Effective number of data elements weighted by wcol*wsys: 235657.000000
#Effective number of random elements weighted by wcol*wsys: 4685323.000000
#Effective redshift value from data 0.330200
#Effective redshift value from randoms 0.330058
#Size of the Box 2500.000000 Mpc/h
#Area of the survey used 5826.000000 deg^2
#Value of alpha: 0.050310
#Normalization using data file
#Normalization using density
#Normalization 4.369835
#Shot noise factor 1.000000
#Shot noise value 3658.190231
#Type of Computation: FFT
#Number of grid cells: 512
#Type of Mass Assigment: TSC
#Type of Yamamoto: GridCenter
#Number of Interlacing steps: 2
#Grid Correction: yes
#Value of Om=0.310000
#Quadrupole as L2
#Octopole as L3
#Hexadecapole as L2L2
#k-centerbin	 k-eff	 Monopole-Pshotnoise	 Dipole	 Quadrupole	 Octopole	 Hexadecapole	 number of modes	 Pshotnoise
0.005000 0.007385 78243.710832 1293.703520 35136.335442 -29637.695560 -93623.118595 250 3658.190231
0.015000 0.016012 83732.591774 1414.718499 11382.950457 -4249.101806 -32083.045781 1852 3658.190231
0.025000 0.025646 57154.603406 1493.971841 15258.113754 1435.740842 -6851.284726 5020 3658.190231
0.035000 0.035469 48291.661480 2246.531347 18425.834000 2467.473067 -5423.189826 9756 3658.190231
0.045000 0.045368 38445.633237 868.407775 16174.719055 1596.429943 7436.701255 16108 3658.190231
0.055000 0.055314 33755.424823 631.917760 17881.727878 1639.921931 8683.583398 24064 3658.190231
0.065000 0.065258 31774.839972 528.784269 10778.798974 967.093040 5146.170414 33396 3658.190231
0.075000 0.075209 27045.685439 319.021359 10026.497268 901.335722 -364.718647 44596 3658.190231
0.085000 0.085175 21826.749435 854.816541 5314.826365 -69.974384 -2963.115774 57124 3658.190231
0.095000 0.095157 18710.454797 205.575277 7375.707195 621.655948 1480.739845 71620 3658.190231
0.105000 0.105162 15691.050508 459.071334 5142.336413 109.383112 485.536711 87552 3658.190231
0.115000 0.115148 14620.452041 65.329756 4788.386180 247.486306 -1333.656441 104524 3658.190231
0.125000 0.125146 13157.140085 304.927412 4026.719229 229.977437 512.444365 124228 3658.190231
0.135000 0.135146 11639.840234 168.518879 3305.018363 70.850339 -90.677884 144204 3658.190231
0.145000 0.145132 10633.862303 201.569550 3244.056836 136.811972 867.723380 166492 3658.190231
0.155000 0.155114 9153.856423 102.298156 2632.639924 205.744885 445.862703 189964 3658.190231
0.165000 0.165102 8408.743535 105.316861 2333.115126 -24.517728 -739.075096 215640 3658.190231
0.175000 0.175105 7927.204292 117.329345 1821.586608 63.183451 -347.346893 242836 3658.190231
0.185000 0.185097 7193.242951 124.416431 1520.587737 139.833619 -245.976427 270556 3658.190231
0.195000 0.195085 6656.017606 70.405996 1395.885666 80.350558 588.858437 301084 3658.190231
0.205000 0.205080 6059.856539 107.549527 1327.611948 37.156918 800.591859 332628 3658.190231
0.215000 0.215092 5603.145895 63.599345 1017.098632 1.640493 182.856925 367216 3658.190231
0.225000 0.225099 5249.922464 73.573157 1143.621067 50.533911 -79.399628 400444 3658.190231
0.235000 0.235081 4882.473781 55.884738 682.830458 21.331610 -27.633155 436500 3658.190231
0.245000 0.245077 4640.032140 68.869077 587.728921 41.128013 -98.755147 475900 3658.190231
0.255000 0.255082 4329.622474 51.600979 425.839482 7.757400 -58.514125 514900 3658.190231
0.265000 0.265074 4049.021960 63.760800 650.225639 3.535788 18.878965 555408 3658.190231
0.275000 0.275066 3819.826602 54.600827 333.286802 50.798722 -88.660570 598684 3658.190231
0.285000 0.285066 3579.990695 58.911663 173.404804 40.753311 357.485606 643228 3658.190231
0.295000 0.295058 3299.608673 50.575324 292.647357 -5.238155 87.109851 688036 3658.190231
