#Data file /home/DATA/sbrieden/Patchy_dr12_mocks/prerecon/original/Patchy-Mocks-DR12LOWZ-S-V5C-Portsmouth-mass_0010.dat
#Random file /home/DATA/sbrieden/Patchy_dr12_mocks/prerecon/original/Random-DR12LOWZ-S-V5C-x20.dat
#Number of data elements used: 101176
#Number of random elements used: 2007904
#Effective number of data elements weighted by wcol: 101176.000000
#Effective number of random elements weighted by wcol: 2007904.000000
#Effective number of data elements weighted by wcol*wsys: 101176.000000
#Effective number of random elements weighted by wcol*wsys: 2007904.000000
#Effective redshift value from data 0.329135
#Effective redshift value from randoms 0.330155
#Size of the Box 2500.000000 Mpc/h
#Area of the survey used 2501.000000 deg^2
#Value of alpha: 0.050253
#Normalization using data file
#Normalization using density
#Normalization 1.872676
#Shot noise factor 1.000000
#Shot noise value 3643.650374
#Type of Computation: FFT
#Number of grid cells: 512
#Type of Mass Assigment: TSC
#Type of Yamamoto: GridCenter
#Number of Interlacing steps: 2
#Grid Correction: yes
#Value of Om=0.310000
#Quadrupole as L2
#Octopole as L3
#Hexadecapole as L2L2
#k-centerbin	 k-eff	 Monopole-Pshotnoise	 Dipole	 Quadrupole	 Octopole	 Hexadecapole	 number of modes	 Pshotnoise
0.005000 0.007385 76955.935044 12782.465847 -1471.018589 -20462.335769 -41145.316648 250 3643.650374
0.015000 0.016012 62638.897687 -4915.254238 15568.347024 -10205.779521 -32482.080698 1852 3643.650374
0.025000 0.025646 74917.345221 3426.470214 23312.662689 10537.796387 18635.085591 5020 3643.650374
0.035000 0.035469 54938.667740 1459.989711 21905.522323 -1920.162930 11746.988344 9756 3643.650374
0.045000 0.045368 39992.611098 2111.129145 13699.962424 3035.716825 12859.139935 16108 3643.650374
0.055000 0.055314 34443.918108 261.108970 3088.326399 1317.659749 -955.496560 24064 3643.650374
0.065000 0.065258 31028.668085 973.991221 13547.440225 308.126266 4911.199446 33396 3643.650374
0.075000 0.075209 25273.047625 612.411019 8514.479728 130.724218 -2173.363380 44596 3643.650374
0.085000 0.085175 19189.785310 707.517526 6835.528238 740.733076 -717.998043 57124 3643.650374
0.095000 0.095157 17131.535290 64.602291 6187.329736 698.856277 487.694934 71620 3643.650374
0.105000 0.105162 15703.508703 189.339521 4192.035059 332.515609 1195.859052 87552 3643.650374
0.115000 0.115148 13710.446047 343.987352 3487.789107 35.971335 2198.409807 104524 3643.650374
0.125000 0.125146 12676.454140 151.481454 4384.580094 250.714811 1156.959801 124228 3643.650374
0.135000 0.135146 11019.556169 181.665752 2539.060972 -122.198346 -786.642569 144204 3643.650374
0.145000 0.145132 10126.603873 209.676049 2486.744050 96.494413 -1593.302745 166492 3643.650374
0.155000 0.155114 9307.243131 90.443553 2465.884536 226.165288 133.992423 189964 3643.650374
0.165000 0.165102 8527.161678 105.693209 2215.169961 115.028179 -91.519570 215640 3643.650374
0.175000 0.175105 7925.167070 135.080207 2073.527949 55.815162 1176.719876 242836 3643.650374
0.185000 0.185097 7209.786365 81.148102 1906.443696 59.361421 485.119432 270556 3643.650374
0.195000 0.195085 6536.381119 130.386070 1152.359595 66.911442 71.697167 301084 3643.650374
0.205000 0.205080 6094.629071 0.959551 787.630538 88.572401 269.708558 332628 3643.650374
0.215000 0.215092 5736.412450 125.271746 834.408977 -17.767875 -324.892474 367216 3643.650374
0.225000 0.225099 5231.784575 48.592848 937.925829 28.792393 176.877903 400444 3643.650374
0.235000 0.235081 5027.812116 77.856869 666.707610 77.908648 61.053534 436500 3643.650374
0.245000 0.245077 4592.869778 67.927778 377.019271 5.455274 87.649258 475900 3643.650374
0.255000 0.255082 4240.503716 66.783091 612.182920 39.761111 400.097661 514900 3643.650374
0.265000 0.265074 4016.982510 57.130262 365.711075 17.746172 471.795568 555408 3643.650374
0.275000 0.275066 3720.804829 51.394060 208.198455 55.229359 305.486787 598684 3643.650374
0.285000 0.285066 3542.900339 47.762879 -34.138531 -41.376703 288.755822 643228 3643.650374
0.295000 0.295058 3310.566544 65.644678 4.169147 -18.921011 -223.562304 688036 3643.650374
