#Data file /home/DATA/sbrieden/Patchy_dr12_mocks/prerecon/original/Patchy-Mocks-DR12CMASS-N-V6C-Portsmouth-mass_0017.dat
#Random file /home/DATA/sbrieden/Patchy_dr12_mocks/prerecon/original/Random-DR12CMASS-N-V6C-x20.dat
#Number of data elements used: 588425
#Number of random elements used: 11797448
#Effective number of data elements weighted by wcol: 588425.000000
#Effective number of random elements weighted by wcol: 11797448.000000
#Effective number of data elements weighted by wcol*wsys: 588425.000000
#Effective number of random elements weighted by wcol*wsys: 11797448.000000
#Effective redshift value from data 0.598053
#Effective redshift value from randoms 0.597992
#Size of the Box 3700.000000 Mpc/h
#Area of the survey used 6851.000000 deg^2
#Value of alpha: 0.049924
#Normalization using data file
#Normalization using density
#Normalization 11.072272
#Shot noise factor 1.000000
#Shot noise value 4938.992774
#Type of Computation: FFT
#Number of grid cells: 512
#Type of Mass Assigment: TSC
#Type of Yamamoto: GridCenter
#Number of Interlacing steps: 2
#Grid Correction: yes
#Value of Om=0.310000
#Quadrupole as L2
#Octopole as L3
#Hexadecapole as L2L2
#k-centerbin	 k-eff	 Monopole-Pshotnoise	 Dipole	 Quadrupole	 Octopole	 Hexadecapole	 number of modes	 Pshotnoise
0.005000 0.007485 62136.052003 -3405.418935 4922.654356 3947.630116 14683.531260 846 4938.992774
0.015000 0.016072 62214.934992 1015.427949 22964.354485 1634.516936 1435.708730 6012 4938.992774
0.025000 0.025646 59401.997717 1005.015150 18183.300140 1464.783008 -5708.315168 16172 4938.992774
0.035000 0.035469 47746.437812 1153.176854 19462.838262 -205.720363 -4233.819937 31764 4938.992774
0.045000 0.045378 37886.700676 651.314161 13028.634012 2111.322827 2870.493094 52164 4938.992774
0.055000 0.055280 31224.672272 423.928866 9170.946711 -9.540277 3374.831563 77396 4938.992774
0.065000 0.065232 27058.066996 330.568888 9791.945493 1005.426906 2053.653208 108936 4938.992774
0.075000 0.075229 23792.375147 292.674993 8516.173048 3.414379 2852.515673 144980 4938.992774
0.085000 0.085193 20110.935510 312.108455 6915.903976 171.663660 -230.593302 184854 4938.992774
0.095000 0.095166 16864.641843 269.691383 6130.192558 322.788322 441.803097 232260 4938.992774
0.105000 0.105155 14200.748942 135.400045 5467.992934 131.303375 101.214664 282884 4938.992774
0.115000 0.115131 13110.772246 138.826145 3851.871234 59.428955 -626.301578 339084 4938.992774
0.125000 0.125124 11930.808416 129.159212 4151.363734 100.403164 60.548449 401864 4938.992774
0.135000 0.135125 10880.429499 83.533020 3101.821117 142.722945 118.828959 468084 4938.992774
0.145000 0.145120 9590.426538 133.610283 2941.169310 117.912975 745.164585 539940 4938.992774
0.155000 0.155118 8559.064922 92.140435 2724.855414 74.397978 831.055405 617324 4938.992774
0.165000 0.165105 7832.535495 109.953057 2387.968672 29.976699 195.032178 697452 4938.992774
0.175000 0.175088 7156.570894 53.359847 1755.312758 83.859663 114.460747 785846 4938.992774
0.185000 0.185089 6599.045518 100.400614 1854.368764 -6.721880 720.131053 879528 4938.992774
0.195000 0.195093 6221.282482 43.908241 1586.093948 65.768990 417.864144 976596 4938.992774
0.205000 0.205084 5799.745447 87.607451 1216.423482 -6.751303 -34.953861 1077212 4938.992774
0.215000 0.215076 5342.997707 55.769533 1002.218236 52.494139 -178.683514 1186908 4938.992774
0.225000 0.225076 4988.740414 62.029872 818.710543 41.567077 -0.531150 1299452 4938.992774
0.235000 0.235073 4508.012024 73.191839 829.304745 -1.109919 305.947766 1417356 4938.992774
0.245000 0.245067 4283.114409 55.703016 742.111477 24.487153 296.813742 1539600 4938.992774
0.255000 0.255064 4069.407246 57.162291 569.321812 38.081306 163.289955 1669820 4938.992774
0.265000 0.265061 3796.897434 52.701182 271.406759 19.129824 170.574125 1801086 4938.992774
0.275000 0.275060 3557.122704 57.484629 391.984717 -2.092778 191.731892 1942244 4938.992774
0.285000 0.285062 3336.177647 51.238045 195.838120 19.776833 166.629334 2084796 4938.992774
0.295000 0.295057 3168.834506 66.580962 198.134139 -20.259814 -28.436546 2231868 4938.992774
