#Data file /home/DATA/sbrieden/Patchy_dr12_mocks/prerecon/original/Patchy-Mocks-DR12CMASS-N-V6C-Portsmouth-mass_0001.dat
#Random file /home/DATA/sbrieden/Patchy_dr12_mocks/prerecon/original/Random-DR12CMASS-N-V6C-x20.dat
#Number of data elements used: 591938
#Number of random elements used: 11797448
#Effective number of data elements weighted by wcol: 591938.000000
#Effective number of random elements weighted by wcol: 11797448.000000
#Effective number of data elements weighted by wcol*wsys: 591938.000000
#Effective number of random elements weighted by wcol*wsys: 11797448.000000
#Effective redshift value from data 0.597959
#Effective redshift value from randoms 0.597992
#Size of the Box 3700.000000 Mpc/h
#Area of the survey used 6851.000000 deg^2
#Value of alpha: 0.050171
#Normalization using data file
#Normalization using density
#Normalization 11.128353
#Shot noise factor 1.000000
#Shot noise value 4938.149144
#Type of Computation: FFT
#Number of grid cells: 512
#Type of Mass Assigment: TSC
#Type of Yamamoto: GridCenter
#Number of Interlacing steps: 2
#Grid Correction: yes
#Value of Om=0.310000
#Quadrupole as L2
#Octopole as L3
#Hexadecapole as L4
#k-centerbin	 k-eff	 Monopole-Pshotnoise	 Dipole	 Quadrupole	 Octopole	 Hexadecapole	 number of modes	 Pshotnoise
0.005000 0.007485 53817.527174 -2034.767901 3376.885844 -5884.582304 -12037.122636 846 4938.149144
0.015000 0.016072 66696.300966 411.152047 13069.941834 -1404.179882 2888.220812 6012 4938.149144
0.025000 0.025646 59726.261364 1275.342911 24889.285530 2712.253127 -3896.243601 16172 4938.149144
0.035000 0.035469 45078.030480 1091.876140 18901.918151 1722.373893 -1492.685632 31764 4938.149144
0.045000 0.045378 37087.126300 491.919825 15601.202546 347.143555 4436.919351 52164 4938.149144
0.055000 0.055280 32881.637028 401.922951 17051.269858 859.274819 1385.572826 77396 4938.149144
0.065000 0.065232 27517.519177 381.776534 11786.332491 837.848005 1530.897161 108936 4938.149144
0.075000 0.075229 23875.725154 306.416704 8436.717344 346.592978 -4.013732 144980 4938.149144
0.085000 0.085193 19847.275479 306.712553 7925.609324 331.686430 1646.806841 184854 4938.149144
0.095000 0.095166 17021.391728 244.280668 5944.484074 135.760954 592.118860 232260 4938.149144
0.105000 0.105155 14389.867843 190.481963 4736.728033 218.512291 402.375384 282884 4938.149144
0.115000 0.115131 13086.675675 120.154149 3707.360271 -5.242544 8.552584 339084 4938.149144
0.125000 0.125124 11899.192073 125.706497 4013.392598 124.635255 481.280179 401864 4938.149144
0.135000 0.135125 10862.820940 102.000546 3325.101393 188.487752 854.775644 468084 4938.149144
0.145000 0.145120 9772.583199 110.798969 2960.544960 112.542607 987.116026 539940 4938.149144
0.155000 0.155118 8685.383370 106.505992 2589.994475 21.983480 894.433181 617324 4938.149144
0.165000 0.165105 7824.628312 112.728882 2308.830708 -6.489705 539.457148 697452 4938.149144
0.175000 0.175088 7121.311731 48.585590 2113.376181 139.247436 167.552263 785846 4938.149144
0.185000 0.185089 6710.466596 80.938455 1538.022128 5.448611 288.020859 879528 4938.149144
0.195000 0.195093 6148.754217 97.697460 1505.727557 -13.506334 -46.056452 976596 4938.149144
0.205000 0.205084 5710.728795 57.290073 1243.574442 88.869821 323.144877 1077212 4938.149144
0.215000 0.215076 5314.914505 71.800410 908.771064 19.739343 428.940247 1186908 4938.149144
0.225000 0.225076 4867.726377 49.025050 967.127537 46.836903 111.958671 1299452 4938.149144
0.235000 0.235073 4592.644950 59.683267 842.442571 25.259953 93.765998 1417356 4938.149144
0.245000 0.245067 4354.741050 64.154293 507.863890 -15.628384 64.239904 1539600 4938.149144
0.255000 0.255064 4029.068725 57.642018 464.156182 40.631589 310.433816 1669820 4938.149144
0.265000 0.265061 3807.168594 58.752473 453.324474 -8.366111 243.947928 1801086 4938.149144
0.275000 0.275060 3535.945187 61.966525 444.793415 22.647030 236.471167 1942244 4938.149144
0.285000 0.285062 3362.978821 45.939083 260.393954 18.924372 190.182355 2084796 4938.149144
0.295000 0.295057 3216.623462 58.514530 186.031815 -0.627340 113.182261 2231868 4938.149144
