#Data file /home/DATA/sbrieden/Patchy_dr12_mocks/prerecon/original/Patchy-Mocks-DR12LOWZ-N-V5C-Portsmouth-mass_0074.dat
#Random file /home/DATA/sbrieden/Patchy_dr12_mocks/prerecon/original/Random-DR12LOWZ-N-V5C-x20.dat
#Number of data elements used: 233639
#Number of random elements used: 4685323
#Effective number of data elements weighted by wcol: 233639.000000
#Effective number of random elements weighted by wcol: 4685323.000000
#Effective number of data elements weighted by wcol*wsys: 233639.000000
#Effective number of random elements weighted by wcol*wsys: 4685323.000000
#Effective redshift value from data 0.331178
#Effective redshift value from randoms 0.330058
#Size of the Box 2500.000000 Mpc/h
#Area of the survey used 5826.000000 deg^2
#Value of alpha: 0.049954
#Normalization using data file
#Normalization using density
#Normalization 4.336516
#Shot noise factor 1.000000
#Shot noise value 3664.501284
#Type of Computation: FFT
#Number of grid cells: 512
#Type of Mass Assigment: TSC
#Type of Yamamoto: GridCenter
#Number of Interlacing steps: 2
#Grid Correction: yes
#Value of Om=0.310000
#Quadrupole as L2
#Octopole as L3
#Hexadecapole as L2L2
#k-centerbin	 k-eff	 Monopole-Pshotnoise	 Dipole	 Quadrupole	 Octopole	 Hexadecapole	 number of modes	 Pshotnoise
0.005000 0.007385 67000.783170 17785.743936 62387.330196 14147.149227 14087.528998 250 3664.501284
0.015000 0.016012 59560.579921 362.712377 11750.509887 2079.275331 -9454.526842 1852 3664.501284
0.025000 0.025646 63830.792613 -579.649437 24218.764919 5073.546625 -3473.127113 5020 3664.501284
0.035000 0.035469 53215.229722 2348.115283 16019.248951 2568.841238 7865.082328 9756 3664.501284
0.045000 0.045368 42150.422609 790.652064 15111.722215 1000.694227 -42.219435 16108 3664.501284
0.055000 0.055314 35882.814462 1424.255907 10087.376123 1760.024757 379.330662 24064 3664.501284
0.065000 0.065258 28067.362735 302.082308 5572.765408 -18.963046 4389.260061 33396 3664.501284
0.075000 0.075209 25360.822571 612.374286 6252.659773 450.028269 1216.731863 44596 3664.501284
0.085000 0.085175 21049.084920 430.112721 5712.990274 150.984380 769.015584 57124 3664.501284
0.095000 0.095157 18527.144133 512.486345 6436.643910 591.187635 124.425275 71620 3664.501284
0.105000 0.105162 15427.146421 195.641739 4656.686400 103.239345 1067.519641 87552 3664.501284
0.115000 0.115148 13861.364111 288.195686 4307.712799 -72.295578 77.924166 104524 3664.501284
0.125000 0.125146 12558.130284 176.200139 4347.155129 450.462783 959.132190 124228 3664.501284
0.135000 0.135146 11457.803352 164.013897 3323.622139 249.139348 1386.896464 144204 3664.501284
0.145000 0.145132 10325.861155 177.659201 3521.505493 -311.355238 731.849350 166492 3664.501284
0.155000 0.155114 9443.875765 135.698186 2987.984808 323.912930 -233.590303 189964 3664.501284
0.165000 0.165102 8352.933350 91.823147 2003.226368 177.231379 -458.713367 215640 3664.501284
0.175000 0.175105 7637.265844 142.479946 2392.685770 11.762108 556.956322 242836 3664.501284
0.185000 0.185097 6927.555217 81.934763 2051.597455 79.136160 287.722368 270556 3664.501284
0.195000 0.195085 6452.114615 78.778481 1423.368704 139.622233 -100.910689 301084 3664.501284
0.205000 0.205080 5891.891189 106.870368 1046.654350 29.412973 175.815249 332628 3664.501284
0.215000 0.215092 5588.280585 37.689996 704.876732 107.410508 186.069247 367216 3664.501284
0.225000 0.225099 5272.312203 58.458737 634.876036 15.675646 323.568448 400444 3664.501284
0.235000 0.235081 4836.910176 102.159277 666.385113 -75.820969 471.867301 436500 3664.501284
0.245000 0.245077 4573.859664 28.773697 400.123070 158.236070 320.214758 475900 3664.501284
0.255000 0.255082 4230.142565 82.758849 419.777446 -64.873708 281.844159 514900 3664.501284
0.265000 0.265074 3958.897718 50.679409 339.176474 64.360033 126.396049 555408 3664.501284
0.275000 0.275066 3684.667443 65.912738 303.957160 -2.126584 355.471442 598684 3664.501284
0.285000 0.285066 3485.396030 49.972441 99.771688 -1.017213 432.670843 643228 3664.501284
0.295000 0.295058 3246.929807 51.781943 178.516223 23.338286 -8.954492 688036 3664.501284
