#Data file /home/DATA/sbrieden/Patchy_dr12_mocks/prerecon/original/Patchy-Mocks-DR12CMASS-S-V6C-Portsmouth-mass_0032.dat
#Random file /home/DATA/sbrieden/Patchy_dr12_mocks/prerecon/original/Random-DR12CMASS-S-V6C-x20.dat
#Number of data elements used: 216213
#Number of random elements used: 4288842
#Effective number of data elements weighted by wcol: 216213.000000
#Effective number of random elements weighted by wcol: 4288842.000000
#Effective number of data elements weighted by wcol*wsys: 216213.000000
#Effective number of random elements weighted by wcol*wsys: 4288842.000000
#Effective redshift value from data 0.596644
#Effective redshift value from randoms 0.597190
#Size of the Box 3700.000000 Mpc/h
#Area of the survey used 2525.000000 deg^2
#Value of alpha: 0.050302
#Normalization using data file
#Normalization using density
#Normalization 4.102460
#Shot noise factor 1.000000
#Shot noise value 4910.953575
#Type of Computation: FFT
#Number of grid cells: 512
#Type of Mass Assigment: TSC
#Type of Yamamoto: GridCenter
#Number of Interlacing steps: 2
#Grid Correction: yes
#Value of Om=0.310000
#Quadrupole as L2
#Octopole as L3
#Hexadecapole as L2L2
#k-centerbin	 k-eff	 Monopole-Pshotnoise	 Dipole	 Quadrupole	 Octopole	 Hexadecapole	 number of modes	 Pshotnoise
0.005000 0.007485 50783.375677 -6387.233224 -21855.580215 4420.926970 20759.739525 846 4910.953575
0.015000 0.016072 67569.847740 863.462230 16904.814318 -7372.077989 -16926.765193 6012 4910.953575
0.025000 0.025646 59665.303393 1292.537236 30995.626977 1890.805831 -32961.843831 16172 4910.953575
0.035000 0.035469 48817.206989 781.433809 19562.229455 1773.999779 2885.697830 31764 4910.953575
0.045000 0.045378 39050.370707 985.061260 17420.152336 254.652562 -2133.920641 52164 4910.953575
0.055000 0.055280 32673.410794 240.669611 13000.393876 952.429576 -3584.382113 77396 4910.953575
0.065000 0.065232 26703.258501 440.450413 9558.146325 503.031914 -98.114208 108936 4910.953575
0.075000 0.075229 23381.904392 321.777940 10295.725885 519.008099 903.428926 144980 4910.953575
0.085000 0.085193 20086.126420 288.400042 8721.622277 195.122265 2303.680780 184854 4910.953575
0.095000 0.095166 16659.048035 244.123295 6674.917086 386.518525 1161.348336 232260 4910.953575
0.105000 0.105155 14585.569612 162.938152 4419.838561 135.457103 366.950594 282884 4910.953575
0.115000 0.115131 13115.265778 174.572936 4100.350078 149.341114 1523.188857 339084 4910.953575
0.125000 0.125124 11864.806123 102.749066 3552.174091 125.824428 1103.614739 401864 4910.953575
0.135000 0.135125 10694.553531 54.897086 3072.504995 205.417033 983.604856 468084 4910.953575
0.145000 0.145120 9739.084955 157.007643 2885.117588 -66.856585 1537.515843 539940 4910.953575
0.155000 0.155118 8870.339442 96.138613 2611.980130 28.961966 692.918037 617324 4910.953575
0.165000 0.165105 7927.638736 94.273134 2500.788336 104.208887 188.291794 697452 4910.953575
0.175000 0.175088 7315.266172 95.571650 1947.286626 85.966366 682.733274 785846 4910.953575
0.185000 0.185089 6504.658085 62.555586 1654.556634 -0.083780 359.231407 879528 4910.953575
0.195000 0.195093 6298.652334 74.492697 1771.528891 87.705842 625.637108 976596 4910.953575
0.205000 0.205084 5690.394761 57.217456 1444.223562 24.889835 556.981686 1077212 4910.953575
0.215000 0.215076 5467.693307 57.223764 1196.711277 72.149658 769.753622 1186908 4910.953575
0.225000 0.225076 4988.189826 81.841280 803.728880 1.998320 783.702804 1299452 4910.953575
0.235000 0.235073 4597.014878 53.456955 759.052955 35.175404 512.594652 1417356 4910.953575
0.245000 0.245067 4281.701099 66.856399 694.257401 -3.250286 251.524611 1539600 4910.953575
0.255000 0.255064 3959.736381 58.962913 629.737065 10.928937 277.061834 1669820 4910.953575
0.265000 0.265061 3840.754213 47.415996 523.634651 50.703125 488.834659 1801086 4910.953575
0.275000 0.275060 3555.608367 63.473361 -17.859071 21.671897 511.665062 1942244 4910.953575
0.285000 0.285062 3376.866665 48.667063 167.445798 -16.386966 410.742409 2084796 4910.953575
0.295000 0.295057 3229.160725 64.166983 110.321951 2.353030 196.125955 2231868 4910.953575
