#Data file /home/DATA/sbrieden/Patchy_dr12_mocks/prerecon/original/Patchy-Mocks-DR12CMASS-N-V6C-Portsmouth-mass_0082.dat
#Random file /home/DATA/sbrieden/Patchy_dr12_mocks/prerecon/original/Random-DR12CMASS-N-V6C-x20.dat
#Number of data elements used: 588065
#Number of random elements used: 11797448
#Effective number of data elements weighted by wcol: 588065.000000
#Effective number of random elements weighted by wcol: 11797448.000000
#Effective number of data elements weighted by wcol*wsys: 588065.000000
#Effective number of random elements weighted by wcol*wsys: 11797448.000000
#Effective redshift value from data 0.598246
#Effective redshift value from randoms 0.597992
#Size of the Box 3700.000000 Mpc/h
#Area of the survey used 6851.000000 deg^2
#Value of alpha: 0.049924
#Normalization using data file
#Normalization using density
#Normalization 11.063924
#Shot noise factor 1.000000
#Shot noise value 4950.010088
#Type of Computation: FFT
#Number of grid cells: 512
#Type of Mass Assigment: TSC
#Type of Yamamoto: GridCenter
#Number of Interlacing steps: 2
#Grid Correction: yes
#Value of Om=0.310000
#Quadrupole as L2
#Octopole as L3
#Hexadecapole as L2L2
#k-centerbin	 k-eff	 Monopole-Pshotnoise	 Dipole	 Quadrupole	 Octopole	 Hexadecapole	 number of modes	 Pshotnoise
0.005000 0.007485 52600.609078 1433.466627 25671.515258 -4448.830035 -29448.111449 846 4950.010088
0.015000 0.016072 61980.844978 688.394373 19031.461201 -1377.088689 -12812.295143 6012 4950.010088
0.025000 0.025646 54596.979880 937.023906 29004.200311 4056.988642 7263.941202 16172 4950.010088
0.035000 0.035469 47601.962573 1056.213251 18210.984628 1729.824714 4393.269097 31764 4950.010088
0.045000 0.045378 36549.198502 745.646089 20564.793396 532.845398 7579.258139 52164 4950.010088
0.055000 0.055280 31743.465773 298.419891 14071.846364 1191.795780 2054.737775 77396 4950.010088
0.065000 0.065232 28194.292606 362.253570 11377.479626 639.982287 2822.270916 108936 4950.010088
0.075000 0.075229 23941.186100 354.552446 10977.330726 413.345881 4398.609703 144980 4950.010088
0.085000 0.085193 19991.351765 349.860094 7148.800855 457.840132 1224.966442 184854 4950.010088
0.095000 0.095166 16719.712233 134.420597 6341.964448 99.263355 552.887498 232260 4950.010088
0.105000 0.105155 14685.481555 224.442654 5339.868485 168.353245 -354.596457 282884 4950.010088
0.115000 0.115131 12762.276829 154.484979 4109.309317 186.302362 1151.731625 339084 4950.010088
0.125000 0.125124 11706.540978 107.716344 4010.900006 40.345819 89.805750 401864 4950.010088
0.135000 0.135125 10393.394334 91.823759 3406.968807 178.897248 179.883080 468084 4950.010088
0.145000 0.145120 9655.612309 109.283506 2814.389768 50.755811 128.086794 539940 4950.010088
0.155000 0.155118 8632.707380 87.152840 2365.700999 92.762531 738.877008 617324 4950.010088
0.165000 0.165105 7780.309971 100.810904 1721.815268 66.485593 270.805000 697452 4950.010088
0.175000 0.175088 7134.654452 87.380636 1736.272865 38.825480 587.165835 785846 4950.010088
0.185000 0.185089 6469.635772 83.768333 1848.187243 -42.240290 131.965507 879528 4950.010088
0.195000 0.195093 6145.438550 50.299196 1588.614396 96.415069 360.894275 976596 4950.010088
0.205000 0.205084 5787.092358 68.445977 1211.203204 39.911822 437.813642 1077212 4950.010088
0.215000 0.215076 5303.355131 75.310152 1035.772245 19.071711 -15.779643 1186908 4950.010088
0.225000 0.225076 4885.456098 64.363367 951.137183 7.311716 -27.820107 1299452 4950.010088
0.235000 0.235073 4516.602139 46.557233 731.415639 63.614925 116.616299 1417356 4950.010088
0.245000 0.245067 4304.451792 65.740451 584.935098 -0.259287 161.865853 1539600 4950.010088
0.255000 0.255064 4013.366259 68.683506 460.088920 -15.388515 141.836489 1669820 4950.010088
0.265000 0.265061 3755.808469 46.400812 538.565796 34.093152 110.053982 1801086 4950.010088
0.275000 0.275060 3569.526033 60.812333 407.531107 8.469676 152.668992 1942244 4950.010088
0.285000 0.285062 3337.865359 52.003970 283.427075 15.913391 150.949561 2084796 4950.010088
0.295000 0.295057 3164.150143 56.508023 159.714866 32.143042 224.387275 2231868 4950.010088
