#Data file /home/DATA/sbrieden/Patchy_dr12_mocks/prerecon/original/Patchy-Mocks-DR12LOWZ-S-V5C-Portsmouth-mass_0009.dat
#Random file /home/DATA/sbrieden/Patchy_dr12_mocks/prerecon/original/Random-DR12LOWZ-S-V5C-x20.dat
#Number of data elements used: 99135
#Number of random elements used: 2007904
#Effective number of data elements weighted by wcol: 99135.000000
#Effective number of random elements weighted by wcol: 2007904.000000
#Effective number of data elements weighted by wcol*wsys: 99135.000000
#Effective number of random elements weighted by wcol*wsys: 2007904.000000
#Effective redshift value from data 0.330576
#Effective redshift value from randoms 0.330155
#Size of the Box 2500.000000 Mpc/h
#Area of the survey used 2501.000000 deg^2
#Value of alpha: 0.049397
#Normalization using data file
#Normalization using density
#Normalization 1.838638
#Shot noise factor 1.000000
#Shot noise value 3656.705992
#Type of Computation: FFT
#Number of grid cells: 512
#Type of Mass Assigment: TSC
#Type of Yamamoto: GridCenter
#Number of Interlacing steps: 2
#Grid Correction: yes
#Value of Om=0.310000
#Quadrupole as L2
#Octopole as L3
#Hexadecapole as L2L2
#k-centerbin	 k-eff	 Monopole-Pshotnoise	 Dipole	 Quadrupole	 Octopole	 Hexadecapole	 number of modes	 Pshotnoise
0.005000 0.007385 43829.649556 -5736.102466 -17090.883506 -19141.404550 -32335.368845 250 3656.705992
0.015000 0.016012 55925.967466 2515.725573 7129.755876 -16912.351198 -34456.421541 1852 3656.705992
0.025000 0.025646 56341.844702 1304.101502 32423.455733 7007.607218 -26185.631336 5020 3656.705992
0.035000 0.035469 42324.335509 466.539235 23809.721790 -246.535610 1201.618081 9756 3656.705992
0.045000 0.045368 39696.936287 868.467626 15125.281488 5264.821963 -9365.319731 16108 3656.705992
0.055000 0.055314 31134.500141 914.562918 7705.463942 -1096.260540 3429.302788 24064 3656.705992
0.065000 0.065258 28211.624662 820.647965 11340.997646 470.206604 -34.118638 33396 3656.705992
0.075000 0.075209 24620.680709 289.713083 10448.147806 311.028308 -3610.970952 44596 3656.705992
0.085000 0.085175 19410.755709 488.616601 5014.084308 1027.257190 -2188.894137 57124 3656.705992
0.095000 0.095157 17593.369911 167.490340 4556.745629 -6.679876 -530.664556 71620 3656.705992
0.105000 0.105162 16347.674562 300.014678 5584.407582 486.655030 1480.893845 87552 3656.705992
0.115000 0.115148 14559.556472 263.828127 4597.313609 124.470384 68.203001 104524 3656.705992
0.125000 0.125146 12290.215459 312.015308 3614.822919 147.355627 1253.415271 124228 3656.705992
0.135000 0.135146 11327.295265 88.775982 2997.137124 230.837582 1574.833905 144204 3656.705992
0.145000 0.145132 10321.713309 77.359888 2507.865895 71.012281 -833.109231 166492 3656.705992
0.155000 0.155114 9539.348814 234.063201 2038.153720 268.751988 150.204357 189964 3656.705992
0.165000 0.165102 8120.167986 112.474815 1426.785403 -128.853830 -220.263299 215640 3656.705992
0.175000 0.175105 7594.711535 109.113120 1445.672331 51.806147 -824.673229 242836 3656.705992
0.185000 0.185097 7084.574704 69.977428 1445.601195 38.342389 137.197745 270556 3656.705992
0.195000 0.195085 6674.135660 91.744700 1493.124716 100.376361 124.457235 301084 3656.705992
0.205000 0.205080 6218.014214 94.560393 1356.429713 24.329597 572.391140 332628 3656.705992
0.215000 0.215092 5663.112408 60.923504 1117.751580 23.201735 522.829965 367216 3656.705992
0.225000 0.225099 5334.368558 64.926532 1167.804274 30.679751 398.299476 400444 3656.705992
0.235000 0.235081 5027.984632 55.307473 792.792852 127.607555 507.837764 436500 3656.705992
0.245000 0.245077 4679.457290 75.670473 191.917370 13.412335 116.236989 475900 3656.705992
0.255000 0.255082 4343.259076 41.374704 33.761955 3.226516 -95.706979 514900 3656.705992
0.265000 0.265074 4100.528679 69.777468 249.224769 -46.329791 -222.848183 555408 3656.705992
0.275000 0.275066 3887.305562 72.201366 202.952827 61.158101 34.980268 598684 3656.705992
0.285000 0.285066 3597.029183 47.336677 213.206645 12.787925 157.042570 643228 3656.705992
0.295000 0.295058 3397.186394 54.092052 62.297945 -26.028747 199.396078 688036 3656.705992
