#Data file /home/DATA/sbrieden/Patchy_dr12_mocks/prerecon/original/Patchy-Mocks-DR12CMASS-N-V6C-Portsmouth-mass_0095.dat
#Random file /home/DATA/sbrieden/Patchy_dr12_mocks/prerecon/original/Random-DR12CMASS-N-V6C-x20.dat
#Number of data elements used: 587429
#Number of random elements used: 11797448
#Effective number of data elements weighted by wcol: 587429.000000
#Effective number of random elements weighted by wcol: 11797448.000000
#Effective number of data elements weighted by wcol*wsys: 587429.000000
#Effective number of random elements weighted by wcol*wsys: 11797448.000000
#Effective redshift value from data 0.598150
#Effective redshift value from randoms 0.597992
#Size of the Box 3700.000000 Mpc/h
#Area of the survey used 6851.000000 deg^2
#Value of alpha: 0.049750
#Normalization using data file
#Normalization using density
#Normalization 11.032783
#Shot noise factor 1.000000
#Shot noise value 4939.391027
#Type of Computation: FFT
#Number of grid cells: 512
#Type of Mass Assigment: TSC
#Type of Yamamoto: GridCenter
#Number of Interlacing steps: 2
#Grid Correction: yes
#Value of Om=0.310000
#Quadrupole as L2
#Octopole as L3
#Hexadecapole as L2L2
#k-centerbin	 k-eff	 Monopole-Pshotnoise	 Dipole	 Quadrupole	 Octopole	 Hexadecapole	 number of modes	 Pshotnoise
0.005000 0.007485 34930.520948 -844.711039 28847.444739 9951.301368 10133.906117 846 4939.391027
0.015000 0.016072 65454.615198 -222.680419 35439.631387 7454.003536 23676.303518 6012 4939.391027
0.025000 0.025646 60073.139119 1338.939357 18805.606474 1649.140984 3849.115336 16172 4939.391027
0.035000 0.035469 47138.192027 1178.380577 16639.710727 1150.977079 6391.088956 31764 4939.391027
0.045000 0.045378 39623.058398 603.954550 13521.728196 139.658280 -5106.004113 52164 4939.391027
0.055000 0.055280 32224.298792 410.929189 15848.321248 1006.490248 3385.520864 77396 4939.391027
0.065000 0.065232 27790.270985 391.639055 11982.535395 599.238534 1761.771604 108936 4939.391027
0.075000 0.075229 24411.058390 247.320069 9784.910727 883.706963 3276.540639 144980 4939.391027
0.085000 0.085193 20076.385957 332.642067 8692.925780 -43.292186 1761.390013 184854 4939.391027
0.095000 0.095166 16994.746567 268.738305 6942.262208 248.417416 887.785970 232260 4939.391027
0.105000 0.105155 14840.239910 170.145871 6208.617913 274.253992 1270.021104 282884 4939.391027
0.115000 0.115131 13150.552020 120.969232 5264.787101 141.317071 180.713337 339084 4939.391027
0.125000 0.125124 11804.262304 148.197453 3758.912276 76.720678 -505.886650 401864 4939.391027
0.135000 0.135125 10724.737828 92.169376 3636.089092 154.185935 798.149915 468084 4939.391027
0.145000 0.145120 9786.673892 131.554732 2640.454625 39.374275 69.903883 539940 4939.391027
0.155000 0.155118 8630.249457 102.474285 2485.303483 83.702155 239.271954 617324 4939.391027
0.165000 0.165105 7838.125304 82.137418 2307.514155 94.783138 537.495321 697452 4939.391027
0.175000 0.175088 7154.364499 69.931849 2052.637910 48.461620 736.781963 785846 4939.391027
0.185000 0.185089 6621.486238 85.870230 1638.732591 53.022995 498.156900 879528 4939.391027
0.195000 0.195093 6100.676386 68.069044 1386.891347 22.042942 172.265707 976596 4939.391027
0.205000 0.205084 5556.162795 70.022879 1281.708666 38.438724 331.658537 1077212 4939.391027
0.215000 0.215076 5271.593477 61.951685 1070.162021 16.716508 217.850721 1186908 4939.391027
0.225000 0.225076 4850.053943 70.717044 1144.002098 10.048370 314.503080 1299452 4939.391027
0.235000 0.235073 4618.591659 51.381002 869.716731 40.370020 237.561695 1417356 4939.391027
0.245000 0.245067 4315.331179 59.393552 670.085007 43.127323 225.825289 1539600 4939.391027
0.255000 0.255064 4042.401369 69.724200 436.908993 -9.302074 164.508633 1669820 4939.391027
0.265000 0.265061 3721.392301 46.373718 457.455361 13.864799 314.923318 1801086 4939.391027
0.275000 0.275060 3573.500352 61.561670 357.216209 19.844276 92.090959 1942244 4939.391027
0.285000 0.285062 3363.970795 54.228970 200.534495 9.160868 87.931174 2084796 4939.391027
0.295000 0.295057 3195.221477 53.433676 124.731154 0.911711 120.614449 2231868 4939.391027
