#Data file /home/DATA/sbrieden/Patchy_dr12_mocks/prerecon/original/Patchy-Mocks-DR12CMASS-N-V6C-Portsmouth-mass_0036.dat
#Random file /home/DATA/sbrieden/Patchy_dr12_mocks/prerecon/original/Random-DR12CMASS-N-V6C-x20.dat
#Number of data elements used: 588950
#Number of random elements used: 11797448
#Effective number of data elements weighted by wcol: 588950.000000
#Effective number of random elements weighted by wcol: 11797448.000000
#Effective number of data elements weighted by wcol*wsys: 588950.000000
#Effective number of random elements weighted by wcol*wsys: 11797448.000000
#Effective redshift value from data 0.597502
#Effective redshift value from randoms 0.597992
#Size of the Box 3700.000000 Mpc/h
#Area of the survey used 6851.000000 deg^2
#Value of alpha: 0.049872
#Normalization using data file
#Normalization using density
#Normalization 11.072894
#Shot noise factor 1.000000
#Shot noise value 4922.256548
#Type of Computation: FFT
#Number of grid cells: 512
#Type of Mass Assigment: TSC
#Type of Yamamoto: GridCenter
#Number of Interlacing steps: 2
#Grid Correction: yes
#Value of Om=0.310000
#Quadrupole as L2
#Octopole as L3
#Hexadecapole as L2L2
#k-centerbin	 k-eff	 Monopole-Pshotnoise	 Dipole	 Quadrupole	 Octopole	 Hexadecapole	 number of modes	 Pshotnoise
0.005000 0.007485 56185.047350 2481.980281 18515.234391 -8029.059003 -20156.881870 846 4922.256548
0.015000 0.016072 62956.724282 486.889340 33106.394698 3220.428510 -1628.454710 6012 4922.256548
0.025000 0.025646 56608.045106 1216.086438 28716.354208 3868.387860 4131.462159 16172 4922.256548
0.035000 0.035469 46221.365546 829.957694 22000.895718 1726.366371 4396.358503 31764 4922.256548
0.045000 0.045378 38007.270478 815.383477 13553.836794 857.902406 3402.591944 52164 4922.256548
0.055000 0.055280 30833.834136 264.905538 11647.045138 227.384278 -530.771853 77396 4922.256548
0.065000 0.065232 28894.488256 408.051683 11827.159833 806.368894 2925.878852 108936 4922.256548
0.075000 0.075229 24530.568070 335.883846 9567.131200 -150.954072 -330.669607 144980 4922.256548
0.085000 0.085193 20296.061625 285.163357 8239.477414 615.085605 -1731.694119 184854 4922.256548
0.095000 0.095166 16831.073257 301.288113 6608.218613 143.171708 272.760667 232260 4922.256548
0.105000 0.105155 14291.264553 184.144712 5723.236676 271.946446 624.731481 282884 4922.256548
0.115000 0.115131 12861.169238 60.729094 4878.795095 216.224775 850.930687 339084 4922.256548
0.125000 0.125124 12186.558066 165.952253 4154.144820 98.776098 976.322417 401864 4922.256548
0.135000 0.135125 10808.102770 103.655041 3658.414733 52.758591 590.957915 468084 4922.256548
0.145000 0.145120 9677.277354 117.043146 3056.818873 89.031290 280.033200 539940 4922.256548
0.155000 0.155118 8559.281573 97.945636 2772.043307 125.477854 176.991229 617324 4922.256548
0.165000 0.165105 7807.445740 71.392926 2291.047518 57.649907 379.346839 697452 4922.256548
0.175000 0.175088 7334.625812 91.841906 1838.785462 24.373206 305.270864 785846 4922.256548
0.185000 0.185089 6639.771019 77.165522 1727.267896 58.366532 485.150234 879528 4922.256548
0.195000 0.195093 6222.722093 77.188425 1246.270950 57.188712 275.420382 976596 4922.256548
0.205000 0.205084 5735.380738 63.173345 1153.211253 9.338472 625.529624 1077212 4922.256548
0.215000 0.215076 5347.985172 67.554623 1099.221554 32.446789 354.273405 1186908 4922.256548
0.225000 0.225076 4910.823869 61.986298 1048.226375 46.479997 271.836910 1299452 4922.256548
0.235000 0.235073 4556.658138 59.422518 956.112366 20.812416 456.211641 1417356 4922.256548
0.245000 0.245067 4330.912796 62.622907 609.612307 -3.911316 216.956228 1539600 4922.256548
0.255000 0.255064 4033.341273 51.515802 659.928300 29.848070 147.946283 1669820 4922.256548
0.265000 0.265061 3796.628850 55.524671 417.574736 36.402652 221.566723 1801086 4922.256548
0.275000 0.275060 3524.843205 61.695998 326.079800 -14.667302 281.806206 1942244 4922.256548
0.285000 0.285062 3369.995825 54.164528 374.019564 21.069613 153.785318 2084796 4922.256548
0.295000 0.295057 3214.761800 59.037450 270.808807 4.841450 181.664691 2231868 4922.256548
