#Data file /home/DATA/sbrieden/Patchy_dr12_mocks/prerecon/original/Patchy-Mocks-DR12LOWZ-S-V5C-Portsmouth-mass_0041.dat
#Random file /home/DATA/sbrieden/Patchy_dr12_mocks/prerecon/original/Random-DR12LOWZ-S-V5C-x20.dat
#Number of data elements used: 102260
#Number of random elements used: 2007904
#Effective number of data elements weighted by wcol: 102260.000000
#Effective number of random elements weighted by wcol: 2007904.000000
#Effective number of data elements weighted by wcol*wsys: 102260.000000
#Effective number of random elements weighted by wcol*wsys: 2007904.000000
#Effective redshift value from data 0.329806
#Effective redshift value from randoms 0.330155
#Size of the Box 2500.000000 Mpc/h
#Area of the survey used 2501.000000 deg^2
#Value of alpha: 0.050789
#Normalization using data file
#Normalization using density
#Normalization 1.892819
#Shot noise factor 1.000000
#Shot noise value 3644.359950
#Type of Computation: FFT
#Number of grid cells: 512
#Type of Mass Assigment: TSC
#Type of Yamamoto: GridCenter
#Number of Interlacing steps: 2
#Grid Correction: yes
#Value of Om=0.310000
#Quadrupole as L2
#Octopole as L3
#Hexadecapole as L2L2
#k-centerbin	 k-eff	 Monopole-Pshotnoise	 Dipole	 Quadrupole	 Octopole	 Hexadecapole	 number of modes	 Pshotnoise
0.005000 0.007385 111281.113329 -21732.237042 -65699.817571 -25560.492632 -66243.938176 250 3644.359950
0.015000 0.016012 94985.984061 3376.014723 -23225.845962 -2638.361053 39751.983655 1852 3644.359950
0.025000 0.025646 63132.784381 2524.211040 -2208.417245 -6173.308117 19496.156672 5020 3644.359950
0.035000 0.035469 58001.783254 2568.630873 21398.121021 2859.631616 11372.220235 9756 3644.359950
0.045000 0.045368 42709.295124 1739.679422 15429.773402 -536.142738 1429.667269 16108 3644.359950
0.055000 0.055314 34614.172874 729.285360 15619.107607 3498.115810 5045.309317 24064 3644.359950
0.065000 0.065258 28355.971611 629.212887 10161.968263 195.765110 3513.322001 33396 3644.359950
0.075000 0.075209 25187.068362 197.660886 4533.535424 1033.106890 -1165.873716 44596 3644.359950
0.085000 0.085175 22846.569266 459.181092 7351.363078 82.610926 1147.410864 57124 3644.359950
0.095000 0.095157 19027.885313 586.713042 4392.302431 661.073769 1944.096509 71620 3644.359950
0.105000 0.105162 15350.541750 322.905359 3921.325239 33.154472 3692.072205 87552 3644.359950
0.115000 0.115148 14344.396531 116.985145 5918.469881 325.344679 1957.053196 104524 3644.359950
0.125000 0.125146 12580.229496 245.820436 3618.270310 108.470745 1082.368246 124228 3644.359950
0.135000 0.135146 11589.092251 132.203013 3395.168984 111.739787 925.851497 144204 3644.359950
0.145000 0.145132 10306.115304 204.127384 3122.729556 -26.941787 -108.719134 166492 3644.359950
0.155000 0.155114 9310.860142 144.949607 3623.107226 185.112765 -612.900953 189964 3644.359950
0.165000 0.165102 8352.138432 165.156853 2477.117707 48.282460 34.713039 215640 3644.359950
0.175000 0.175105 7553.817702 114.583340 2556.551493 214.828252 76.263078 242836 3644.359950
0.185000 0.185097 7123.698572 62.147527 2148.795087 89.415261 561.017349 270556 3644.359950
0.195000 0.195085 6489.715888 80.537906 1174.832145 218.441694 704.813727 301084 3644.359950
0.205000 0.205080 6078.531242 63.103822 1505.009869 -130.525799 673.099219 332628 3644.359950
0.215000 0.215092 5686.248152 96.429149 1342.017465 126.799126 -38.768651 367216 3644.359950
0.225000 0.225099 5104.786085 52.081131 582.387677 106.130331 635.947638 400444 3644.359950
0.235000 0.235081 4803.767050 78.119568 436.443793 -16.156391 398.008696 436500 3644.359950
0.245000 0.245077 4635.077754 56.347727 403.564830 2.710962 196.663825 475900 3644.359950
0.255000 0.255082 4229.349817 75.765021 428.107044 -6.364651 84.960760 514900 3644.359950
0.265000 0.265074 4128.079876 16.761473 279.851309 70.433880 390.923493 555408 3644.359950
0.275000 0.275066 3705.447593 96.451961 329.673822 -8.548054 589.565323 598684 3644.359950
0.285000 0.285066 3591.810402 20.021344 129.256427 38.422138 117.040454 643228 3644.359950
0.295000 0.295058 3311.708204 71.689669 35.712044 17.462275 518.448239 688036 3644.359950
