#Data file /home/DATA/sbrieden/Patchy_dr12_mocks/prerecon/original/Patchy-Mocks-DR12CMASS-N-V6C-Portsmouth-mass_0078.dat
#Random file /home/DATA/sbrieden/Patchy_dr12_mocks/prerecon/original/Random-DR12CMASS-N-V6C-x20.dat
#Number of data elements used: 589578
#Number of random elements used: 11797448
#Effective number of data elements weighted by wcol: 589578.000000
#Effective number of random elements weighted by wcol: 11797448.000000
#Effective number of data elements weighted by wcol*wsys: 589578.000000
#Effective number of random elements weighted by wcol*wsys: 11797448.000000
#Effective redshift value from data 0.597896
#Effective redshift value from randoms 0.597992
#Size of the Box 3700.000000 Mpc/h
#Area of the survey used 6851.000000 deg^2
#Value of alpha: 0.049968
#Normalization using data file
#Normalization using density
#Normalization 11.084184
#Shot noise factor 1.000000
#Shot noise value 4936.031276
#Type of Computation: FFT
#Number of grid cells: 512
#Type of Mass Assigment: TSC
#Type of Yamamoto: GridCenter
#Number of Interlacing steps: 2
#Grid Correction: yes
#Value of Om=0.310000
#Quadrupole as L2
#Octopole as L3
#Hexadecapole as L2L2
#k-centerbin	 k-eff	 Monopole-Pshotnoise	 Dipole	 Quadrupole	 Octopole	 Hexadecapole	 number of modes	 Pshotnoise
0.005000 0.007485 65442.453490 -1351.164349 -12596.310989 -13917.784285 -18876.336105 846 4936.031276
0.015000 0.016072 70387.510511 897.841645 21878.898324 353.962920 2076.299779 6012 4936.031276
0.025000 0.025646 60253.692519 1176.859282 29224.335543 5639.894006 31276.133437 16172 4936.031276
0.035000 0.035469 48344.272657 568.585441 17330.876984 2028.884900 2148.793570 31764 4936.031276
0.045000 0.045378 37905.230235 1228.683902 13091.586873 92.680049 3694.069734 52164 4936.031276
0.055000 0.055280 32679.449718 308.962999 13535.419811 187.084299 2591.350479 77396 4936.031276
0.065000 0.065232 27108.473870 416.386995 11586.354581 600.255636 -280.316634 108936 4936.031276
0.075000 0.075229 24644.697251 207.783317 10361.004748 710.241003 1601.708450 144980 4936.031276
0.085000 0.085193 20354.116088 382.838799 7763.859570 168.570174 243.189699 184854 4936.031276
0.095000 0.095166 16383.311863 252.129292 6108.999075 72.002216 -1322.660560 232260 4936.031276
0.105000 0.105155 14576.590918 115.535648 5493.309768 389.491399 -1604.526345 282884 4936.031276
0.115000 0.115131 13328.150820 158.268222 4452.908384 29.390294 -479.348965 339084 4936.031276
0.125000 0.125124 12202.272127 114.586416 4130.359650 147.106158 -59.746586 401864 4936.031276
0.135000 0.135125 10799.273708 114.590188 3733.271313 57.161865 316.605591 468084 4936.031276
0.145000 0.145120 9667.179380 144.802801 3187.459851 88.706777 -484.221914 539940 4936.031276
0.155000 0.155118 8564.062664 99.083246 2592.398172 66.510748 -114.643863 617324 4936.031276
0.165000 0.165105 7948.554340 54.054328 2396.024601 132.408936 40.351074 697452 4936.031276
0.175000 0.175088 7211.599386 107.429767 1498.093529 -17.283013 550.150243 785846 4936.031276
0.185000 0.185089 6721.750788 76.267240 1637.269546 40.638233 399.597425 879528 4936.031276
0.195000 0.195093 6128.793029 53.907974 1650.567442 84.520435 -4.254820 976596 4936.031276
0.205000 0.205084 5716.498273 82.121415 1375.779741 12.852368 343.044780 1077212 4936.031276
0.215000 0.215076 5254.424655 61.774601 1154.109019 30.676169 336.872723 1186908 4936.031276
0.225000 0.225076 4867.993187 60.868739 788.245194 23.761103 -13.782107 1299452 4936.031276
0.235000 0.235073 4570.433977 55.558984 720.232366 34.055968 -58.688767 1417356 4936.031276
0.245000 0.245067 4325.546207 66.523139 466.864476 32.844977 223.993988 1539600 4936.031276
0.255000 0.255064 3958.883954 61.689593 445.393727 -14.104883 299.414646 1669820 4936.031276
0.265000 0.265061 3764.797687 52.808407 475.930056 20.444817 -1.198994 1801086 4936.031276
0.275000 0.275060 3594.119839 60.771927 303.384954 4.415357 166.815817 1942244 4936.031276
0.285000 0.285062 3329.712042 56.747017 367.893922 9.616106 224.356071 2084796 4936.031276
0.295000 0.295057 3157.209378 52.031317 189.605172 37.729533 236.373423 2231868 4936.031276
