#Data file /home/DATA/sbrieden/Patchy_dr12_mocks/prerecon/original/Patchy-Mocks-DR12CMASS-S-V6C-Portsmouth-mass_0093.dat
#Random file /home/DATA/sbrieden/Patchy_dr12_mocks/prerecon/original/Random-DR12CMASS-S-V6C-x20.dat
#Number of data elements used: 215032
#Number of random elements used: 4288842
#Effective number of data elements weighted by wcol: 215032.000000
#Effective number of random elements weighted by wcol: 4288842.000000
#Effective number of data elements weighted by wcol*wsys: 215032.000000
#Effective number of random elements weighted by wcol*wsys: 4288842.000000
#Effective redshift value from data 0.597121
#Effective redshift value from randoms 0.597190
#Size of the Box 3700.000000 Mpc/h
#Area of the survey used 2525.000000 deg^2
#Value of alpha: 0.050148
#Normalization using data file
#Normalization using density
#Normalization 4.082115
#Shot noise factor 1.000000
#Shot noise value 4938.771505
#Type of Computation: FFT
#Number of grid cells: 512
#Type of Mass Assigment: TSC
#Type of Yamamoto: GridCenter
#Number of Interlacing steps: 2
#Grid Correction: yes
#Value of Om=0.310000
#Quadrupole as L2
#Octopole as L3
#Hexadecapole as L2L2
#k-centerbin	 k-eff	 Monopole-Pshotnoise	 Dipole	 Quadrupole	 Octopole	 Hexadecapole	 number of modes	 Pshotnoise
0.005000 0.007485 31802.204047 1175.960556 10567.666950 -8166.098267 -18362.952747 846 4938.771505
0.015000 0.016072 51748.913860 -2008.806988 7723.636657 876.553639 602.645015 6012 4938.771505
0.025000 0.025646 53595.851396 718.752416 17578.019851 3090.306963 -526.475913 16172 4938.771505
0.035000 0.035469 46198.460610 1025.532533 14432.838181 -727.811758 -3783.640368 31764 4938.771505
0.045000 0.045378 40466.064119 552.519407 12835.814772 37.770175 2520.363522 52164 4938.771505
0.055000 0.055280 32456.894353 457.217246 10896.485174 971.005112 -3498.766330 77396 4938.771505
0.065000 0.065232 25651.476583 480.316212 10262.952616 140.627494 3283.896416 108936 4938.771505
0.075000 0.075229 23264.722083 299.630558 10477.657329 203.567465 -2426.950982 144980 4938.771505
0.085000 0.085193 20542.720778 212.074728 9044.146677 552.651933 -2109.439966 184854 4938.771505
0.095000 0.095166 17406.288650 355.580135 6932.905247 266.639198 2933.243874 232260 4938.771505
0.105000 0.105155 14305.533522 138.935798 4686.005468 265.007190 1140.190526 282884 4938.771505
0.115000 0.115131 13539.519300 107.445357 4857.213823 125.249677 2030.244758 339084 4938.771505
0.125000 0.125124 12042.411540 134.580075 4152.493577 118.213294 530.461922 401864 4938.771505
0.135000 0.135125 10527.300467 159.588522 3136.548556 35.054564 -113.704764 468084 4938.771505
0.145000 0.145120 9228.066811 85.609609 2406.903565 138.704570 -249.243163 539940 4938.771505
0.155000 0.155118 8469.527544 77.800007 2291.181238 116.065757 90.906167 617324 4938.771505
0.165000 0.165105 7918.932800 95.977315 2348.195501 11.586659 1338.316315 697452 4938.771505
0.175000 0.175088 6987.849541 85.943627 2028.759014 63.758960 669.044787 785846 4938.771505
0.185000 0.185089 6644.685414 64.277958 1765.492763 45.161231 135.588670 879528 4938.771505
0.195000 0.195093 6079.734936 76.063301 1124.874298 64.036484 -200.190984 976596 4938.771505
0.205000 0.205084 5567.080733 77.487682 535.973192 -19.802897 160.776873 1077212 4938.771505
0.215000 0.215076 5146.005653 62.214423 832.851768 47.525194 281.372107 1186908 4938.771505
0.225000 0.225076 4800.227860 53.418171 745.284191 26.869179 350.247870 1299452 4938.771505
0.235000 0.235073 4574.007553 61.397141 511.833972 29.114607 437.685649 1417356 4938.771505
0.245000 0.245067 4239.603722 59.949407 325.203160 -3.131633 209.295080 1539600 4938.771505
0.255000 0.255064 3909.631278 65.716430 495.698971 -10.580540 270.690834 1669820 4938.771505
0.265000 0.265061 3663.605181 57.659333 296.416152 12.678143 141.093743 1801086 4938.771505
0.275000 0.275060 3476.056983 52.461687 289.138764 -11.892640 -246.376419 1942244 4938.771505
0.285000 0.285062 3318.330125 56.819714 211.350140 35.278369 80.488537 2084796 4938.771505
0.295000 0.295057 3132.273171 50.786798 97.183869 15.156494 255.267011 2231868 4938.771505
