#Data file /home/DATA/sbrieden/Patchy_dr12_mocks/prerecon/original/Patchy-Mocks-DR12LOWZ-N-V5C-Portsmouth-mass_0038.dat
#Random file /home/DATA/sbrieden/Patchy_dr12_mocks/prerecon/original/Random-DR12LOWZ-N-V5C-x20.dat
#Number of data elements used: 233621
#Number of random elements used: 4685323
#Effective number of data elements weighted by wcol: 233621.000000
#Effective number of random elements weighted by wcol: 4685323.000000
#Effective number of data elements weighted by wcol*wsys: 233621.000000
#Effective number of random elements weighted by wcol*wsys: 4685323.000000
#Effective redshift value from data 0.328805
#Effective redshift value from randoms 0.330058
#Size of the Box 2500.000000 Mpc/h
#Area of the survey used 5826.000000 deg^2
#Value of alpha: 0.049814
#Normalization using data file
#Normalization using density
#Normalization 4.329858
#Shot noise factor 1.000000
#Shot noise value 3646.866365
#Type of Computation: FFT
#Number of grid cells: 512
#Type of Mass Assigment: TSC
#Type of Yamamoto: GridCenter
#Number of Interlacing steps: 2
#Grid Correction: yes
#Value of Om=0.310000
#Quadrupole as L2
#Octopole as L3
#Hexadecapole as L2L2
#k-centerbin	 k-eff	 Monopole-Pshotnoise	 Dipole	 Quadrupole	 Octopole	 Hexadecapole	 number of modes	 Pshotnoise
0.005000 0.007385 55892.339111 9589.145823 62843.594676 39278.631870 46968.975123 250 3646.866365
0.015000 0.016012 78137.714141 -2124.192937 12365.527209 9637.264982 6376.355249 1852 3646.866365
0.025000 0.025646 67985.022554 3705.562279 3656.500075 -1366.500370 -17840.932956 5020 3646.866365
0.035000 0.035469 50382.804849 1784.438326 17798.650595 -1648.890859 3596.251371 9756 3646.866365
0.045000 0.045368 41504.407105 1424.314739 16099.388744 2136.882727 2748.846896 16108 3646.866365
0.055000 0.055314 32313.637737 743.571149 14439.102441 1438.814630 5644.634864 24064 3646.866365
0.065000 0.065258 29520.153505 488.936898 9680.052524 881.491211 691.297170 33396 3646.866365
0.075000 0.075209 24876.259354 432.743616 7871.964958 439.276603 -490.226024 44596 3646.866365
0.085000 0.085175 21994.329011 545.037863 7952.382606 521.742664 128.675742 57124 3646.866365
0.095000 0.095157 18291.688953 288.854895 5286.319437 374.037367 1012.999899 71620 3646.866365
0.105000 0.105162 16075.902514 369.695004 5379.007739 -51.946063 -1386.796584 87552 3646.866365
0.115000 0.115148 14157.865780 295.817842 5028.724174 388.916602 367.316905 104524 3646.866365
0.125000 0.125146 12718.971157 138.894705 3836.449089 410.307390 1372.625829 124228 3646.866365
0.135000 0.135146 11247.048928 157.989740 3262.735926 -49.714395 724.305267 144204 3646.866365
0.145000 0.145132 10367.091505 155.121563 3299.979094 220.567298 300.317815 166492 3646.866365
0.155000 0.155114 9237.131805 118.335887 2164.104808 124.655477 -154.114523 189964 3646.866365
0.165000 0.165102 8378.189680 144.794389 1495.585536 62.343220 -124.279661 215640 3646.866365
0.175000 0.175105 7856.304679 103.884096 2199.839823 37.695807 683.094574 242836 3646.866365
0.185000 0.185097 6988.799502 115.962666 1570.943810 69.225933 592.598415 270556 3646.866365
0.195000 0.195085 6587.734241 69.434561 1334.498620 88.840899 165.908423 301084 3646.866365
0.205000 0.205080 5970.859701 90.359029 1028.836998 99.457486 -45.795992 332628 3646.866365
0.215000 0.215092 5551.863842 84.227534 812.245788 -10.163593 226.828913 367216 3646.866365
0.225000 0.225099 5143.895385 53.864887 648.546133 108.940777 266.127681 400444 3646.866365
0.235000 0.235081 4840.499979 81.054666 793.053725 -53.834116 527.661256 436500 3646.866365
0.245000 0.245077 4563.924619 34.809638 510.508570 84.309064 392.695314 475900 3646.866365
0.255000 0.255082 4254.053808 77.840326 306.327447 1.516476 327.918834 514900 3646.866365
0.265000 0.265074 3948.500478 55.519395 115.919865 58.895990 503.089345 555408 3646.866365
0.275000 0.275066 3771.426887 51.839802 213.367447 -59.440855 231.097253 598684 3646.866365
0.285000 0.285066 3510.512996 67.271247 113.926072 43.496916 285.873638 643228 3646.866365
0.295000 0.295058 3275.241733 49.159304 -23.851639 25.842197 387.758700 688036 3646.866365
