#Data file /home/DATA/sbrieden/Patchy_dr12_mocks/prerecon/original/Patchy-Mocks-DR12CMASS-N-V6C-Portsmouth-mass_0085.dat
#Random file /home/DATA/sbrieden/Patchy_dr12_mocks/prerecon/original/Random-DR12CMASS-N-V6C-x20.dat
#Number of data elements used: 589837
#Number of random elements used: 11797448
#Effective number of data elements weighted by wcol: 589837.000000
#Effective number of random elements weighted by wcol: 11797448.000000
#Effective number of data elements weighted by wcol*wsys: 589837.000000
#Effective number of random elements weighted by wcol*wsys: 11797448.000000
#Effective redshift value from data 0.598221
#Effective redshift value from randoms 0.597992
#Size of the Box 3700.000000 Mpc/h
#Area of the survey used 6851.000000 deg^2
#Value of alpha: 0.049974
#Normalization using data file
#Normalization using density
#Normalization 11.086662
#Shot noise factor 1.000000
#Shot noise value 4934.715355
#Type of Computation: FFT
#Number of grid cells: 512
#Type of Mass Assigment: TSC
#Type of Yamamoto: GridCenter
#Number of Interlacing steps: 2
#Grid Correction: yes
#Value of Om=0.310000
#Quadrupole as L2
#Octopole as L3
#Hexadecapole as L2L2
#k-centerbin	 k-eff	 Monopole-Pshotnoise	 Dipole	 Quadrupole	 Octopole	 Hexadecapole	 number of modes	 Pshotnoise
0.005000 0.007485 64544.761344 2423.879511 20417.927935 -6067.997253 -20184.061222 846 4934.715355
0.015000 0.016072 79301.060137 2376.971369 41924.103725 -80.135152 -13790.625811 6012 4934.715355
0.025000 0.025646 63584.034181 1088.187551 26548.454723 3262.330574 155.911025 16172 4934.715355
0.035000 0.035469 47523.613710 1009.389919 18299.171324 2399.675284 -619.971227 31764 4934.715355
0.045000 0.045378 37702.015680 711.978021 12280.246395 636.569448 1347.617238 52164 4934.715355
0.055000 0.055280 31312.820580 335.270760 12794.153107 425.420361 1721.617397 77396 4934.715355
0.065000 0.065232 27443.377634 387.848054 8978.601803 587.628857 -338.728410 108936 4934.715355
0.075000 0.075229 23191.976436 314.735629 8401.451911 78.862609 526.900152 144980 4934.715355
0.085000 0.085193 20344.058259 365.789559 8081.930843 291.135636 765.109544 184854 4934.715355
0.095000 0.095166 16518.135291 183.464258 6737.607058 321.410753 771.843410 232260 4934.715355
0.105000 0.105155 14187.327435 188.703882 5563.397671 147.774974 -372.078883 282884 4934.715355
0.115000 0.115131 12923.820976 143.483687 4181.907948 75.652027 -32.754502 339084 4934.715355
0.125000 0.125124 11861.821568 111.554837 4073.053334 104.331152 -94.409944 401864 4934.715355
0.135000 0.135125 10920.170708 92.598525 3294.854872 166.084291 559.545344 468084 4934.715355
0.145000 0.145120 9702.072655 137.962787 2932.090303 16.527824 -53.681837 539940 4934.715355
0.155000 0.155118 8577.599854 83.231070 2637.851125 87.624724 512.915568 617324 4934.715355
0.165000 0.165105 7859.086446 105.336288 2557.113758 54.900003 296.826179 697452 4934.715355
0.175000 0.175088 7192.691037 71.142405 2096.728741 59.045811 162.052782 785846 4934.715355
0.185000 0.185089 6699.495376 69.290533 1686.433601 61.668216 -246.692448 879528 4934.715355
0.195000 0.195093 6206.210424 75.974095 1411.751673 21.728011 142.755483 976596 4934.715355
0.205000 0.205084 5670.653611 70.787344 1317.824897 37.835082 211.799906 1077212 4934.715355
0.215000 0.215076 5285.311671 65.988724 866.097294 42.046348 319.523037 1186908 4934.715355
0.225000 0.225076 4882.065404 61.446880 1001.673353 25.280863 191.478436 1299452 4934.715355
0.235000 0.235073 4566.159870 61.044349 809.223574 7.008839 234.190565 1417356 4934.715355
0.245000 0.245067 4259.365605 53.996772 825.728396 32.118902 239.820851 1539600 4934.715355
0.255000 0.255064 3970.286219 61.632469 594.458758 30.889217 302.827337 1669820 4934.715355
0.265000 0.265061 3767.154208 56.838080 434.699453 6.946147 164.222508 1801086 4934.715355
0.275000 0.275060 3552.769874 59.860135 430.751832 -5.472454 267.122683 1942244 4934.715355
0.285000 0.285062 3342.055305 55.386503 217.519180 31.110504 175.384006 2084796 4934.715355
0.295000 0.295057 3141.589030 56.941164 144.046074 -5.607691 283.363826 2231868 4934.715355
