#Data file /home/DATA/sbrieden/Patchy_dr12_mocks/prerecon/original/Patchy-Mocks-DR12LOWZ-N-V5C-Portsmouth-mass_0017.dat
#Random file /home/DATA/sbrieden/Patchy_dr12_mocks/prerecon/original/Random-DR12LOWZ-N-V5C-x20.dat
#Number of data elements used: 234771
#Number of random elements used: 4685323
#Effective number of data elements weighted by wcol: 234771.000000
#Effective number of random elements weighted by wcol: 4685323.000000
#Effective number of data elements weighted by wcol*wsys: 234771.000000
#Effective number of random elements weighted by wcol*wsys: 4685323.000000
#Effective redshift value from data 0.330460
#Effective redshift value from randoms 0.330058
#Size of the Box 2500.000000 Mpc/h
#Area of the survey used 5826.000000 deg^2
#Value of alpha: 0.050121
#Normalization using data file
#Normalization using density
#Normalization 4.353304
#Shot noise factor 1.000000
#Shot noise value 3658.066613
#Type of Computation: FFT
#Number of grid cells: 512
#Type of Mass Assigment: TSC
#Type of Yamamoto: GridCenter
#Number of Interlacing steps: 2
#Grid Correction: yes
#Value of Om=0.310000
#Quadrupole as L2
#Octopole as L3
#Hexadecapole as L2L2
#k-centerbin	 k-eff	 Monopole-Pshotnoise	 Dipole	 Quadrupole	 Octopole	 Hexadecapole	 number of modes	 Pshotnoise
0.005000 0.007385 90098.665645 12689.356152 49947.867442 -2607.939089 -83600.836800 250 3658.066613
0.015000 0.016012 60829.341676 -2231.830913 23736.013393 12771.298637 25514.602067 1852 3658.066613
0.025000 0.025646 66813.159645 3026.198135 36639.657915 378.698884 29774.852620 5020 3658.066613
0.035000 0.035469 54223.690898 2473.111915 31589.666159 9986.019770 6742.976994 9756 3658.066613
0.045000 0.045368 39351.218128 1640.179848 13553.407744 -286.071994 -1245.812025 16108 3658.066613
0.055000 0.055314 33999.761700 194.482713 15835.248020 1862.300024 1417.867879 24064 3658.066613
0.065000 0.065258 29545.898110 923.717572 12151.474844 650.357536 23.597804 33396 3658.066613
0.075000 0.075209 25120.620138 598.908973 9506.719345 1014.596674 1651.065585 44596 3658.066613
0.085000 0.085175 21046.557904 357.867569 9753.200127 635.493179 2986.439098 57124 3658.066613
0.095000 0.095157 18720.693554 393.349913 6972.469266 498.556013 -188.921566 71620 3658.066613
0.105000 0.105162 15186.939089 421.138783 6026.785674 152.477842 1139.844496 87552 3658.066613
0.115000 0.115148 13935.830415 141.142587 4797.742010 123.813219 -778.065174 104524 3658.066613
0.125000 0.125146 12615.501758 154.271142 4169.724619 509.717521 13.124646 124228 3658.066613
0.135000 0.135146 11499.626676 134.894416 2746.966331 178.903228 957.067326 144204 3658.066613
0.145000 0.145132 10109.155683 175.385926 2315.575318 242.646294 950.425195 166492 3658.066613
0.155000 0.155114 9145.287168 123.264850 2086.677978 123.767397 588.078119 189964 3658.066613
0.165000 0.165102 8248.046606 145.609231 1875.255286 -74.874643 290.424687 215640 3658.066613
0.175000 0.175105 7517.207258 125.819145 1752.214129 50.863982 574.240981 242836 3658.066613
0.185000 0.185097 6891.076610 84.056809 1482.110801 -0.392532 -307.135693 270556 3658.066613
0.195000 0.195085 6383.063318 112.610628 1311.760291 33.716402 -186.112586 301084 3658.066613
0.205000 0.205080 5955.300410 49.475458 1189.654427 58.341954 194.092359 332628 3658.066613
0.215000 0.215092 5613.899483 70.578402 1217.070549 77.635918 -255.893014 367216 3658.066613
0.225000 0.225099 5249.866759 85.662878 827.212488 76.307539 3.076171 400444 3658.066613
0.235000 0.235081 4736.177934 70.629821 664.106195 21.153714 110.227684 436500 3658.066613
0.245000 0.245077 4461.967662 59.321616 667.201587 -33.378324 494.063643 475900 3658.066613
0.255000 0.255082 4256.892952 53.796857 629.005468 63.985428 158.141431 514900 3658.066613
0.265000 0.265074 3964.571220 57.129318 376.951501 11.980946 292.790322 555408 3658.066613
0.275000 0.275066 3764.662170 46.941806 362.210048 37.881891 235.539149 598684 3658.066613
0.285000 0.285066 3511.405296 58.748764 92.048817 23.650111 -15.404714 643228 3658.066613
0.295000 0.295058 3291.398719 45.853878 107.102470 29.454543 150.677547 688036 3658.066613
