#Data file /home/DATA/sbrieden/Patchy_dr12_mocks/prerecon/original/Patchy-Mocks-DR12LOWZ-N-V5C-Portsmouth-mass_0059.dat
#Random file /home/DATA/sbrieden/Patchy_dr12_mocks/prerecon/original/Random-DR12LOWZ-N-V5C-x20.dat
#Number of data elements used: 234077
#Number of random elements used: 4685323
#Effective number of data elements weighted by wcol: 234077.000000
#Effective number of random elements weighted by wcol: 4685323.000000
#Effective number of data elements weighted by wcol*wsys: 234077.000000
#Effective number of random elements weighted by wcol*wsys: 4685323.000000
#Effective redshift value from data 0.329857
#Effective redshift value from randoms 0.330058
#Size of the Box 2500.000000 Mpc/h
#Area of the survey used 5826.000000 deg^2
#Value of alpha: 0.049989
#Normalization using data file
#Normalization using density
#Normalization 4.341758
#Shot noise factor 1.000000
#Shot noise value 3657.877215
#Type of Computation: FFT
#Number of grid cells: 512
#Type of Mass Assigment: TSC
#Type of Yamamoto: GridCenter
#Number of Interlacing steps: 2
#Grid Correction: yes
#Value of Om=0.310000
#Quadrupole as L2
#Octopole as L3
#Hexadecapole as L2L2
#k-centerbin	 k-eff	 Monopole-Pshotnoise	 Dipole	 Quadrupole	 Octopole	 Hexadecapole	 number of modes	 Pshotnoise
0.005000 0.007385 50087.610751 -11205.340624 -32395.427010 -12686.024530 12607.727458 250 3657.877215
0.015000 0.016012 62053.214313 1951.348305 41978.679659 9661.459675 24054.316596 1852 3657.877215
0.025000 0.025646 66338.864680 2774.584250 26576.037702 4251.794009 -3316.803166 5020 3657.877215
0.035000 0.035469 51535.611458 986.865980 10055.104291 -1707.048160 -7151.116311 9756 3657.877215
0.045000 0.045368 39782.137113 1514.495477 16343.447335 2320.972770 -2666.324642 16108 3657.877215
0.055000 0.055314 34557.832379 603.096873 14736.639087 718.380885 2905.407514 24064 3657.877215
0.065000 0.065258 28972.000812 754.560379 9328.693096 1685.439069 86.004913 33396 3657.877215
0.075000 0.075209 24653.722499 419.147090 7172.789410 191.541860 565.204529 44596 3657.877215
0.085000 0.085175 20900.039815 558.641829 7691.201416 356.654031 171.596743 57124 3657.877215
0.095000 0.095157 18091.375330 353.190120 6713.459267 442.330886 -385.918441 71620 3657.877215
0.105000 0.105162 15142.932610 334.525470 4351.503482 270.827162 930.086126 87552 3657.877215
0.115000 0.115148 13957.527184 106.248898 4328.915159 463.353180 1435.650448 104524 3657.877215
0.125000 0.125146 12647.296337 235.788132 3463.413019 -109.517136 912.175105 124228 3657.877215
0.135000 0.135146 11531.556040 142.352626 4212.893960 161.286853 280.343485 144204 3657.877215
0.145000 0.145132 10300.164836 177.156993 3017.034127 275.798580 233.252092 166492 3657.877215
0.155000 0.155114 9037.011614 157.545074 1963.063730 73.810602 215.122642 189964 3657.877215
0.165000 0.165102 8162.212755 130.599505 2168.714883 64.643776 607.638763 215640 3657.877215
0.175000 0.175105 7501.835741 90.547083 1926.402396 -14.960296 626.884785 242836 3657.877215
0.185000 0.185097 6966.583328 101.530492 1849.067507 33.257965 131.370169 270556 3657.877215
0.195000 0.195085 6442.019851 95.331677 1620.954462 134.552229 -2.018408 301084 3657.877215
0.205000 0.205080 5833.674230 91.215590 1304.457935 14.244359 -28.579082 332628 3657.877215
0.215000 0.215092 5395.705667 73.015243 1077.712354 85.413481 435.223984 367216 3657.877215
0.225000 0.225099 5112.436987 65.932318 963.168256 -47.161851 28.647241 400444 3657.877215
0.235000 0.235081 4751.242127 67.606406 1090.738133 64.317131 -104.701604 436500 3657.877215
0.245000 0.245077 4480.467970 69.565026 828.777204 28.187964 23.621274 475900 3657.877215
0.255000 0.255082 4154.375535 36.130110 589.647246 55.136163 83.361309 514900 3657.877215
0.265000 0.265074 3992.552160 55.106171 595.149397 22.408025 -24.446189 555408 3657.877215
0.275000 0.275066 3723.814729 54.409217 404.483256 18.313515 133.647547 598684 3657.877215
0.285000 0.285066 3558.169829 56.051112 192.034152 60.492934 170.030285 643228 3657.877215
0.295000 0.295058 3262.113320 59.452841 117.873014 -24.736297 268.046767 688036 3657.877215
