#Data file /home/DATA/sbrieden/Patchy_dr12_mocks/prerecon/original/Patchy-Mocks-DR12CMASS-S-V6C-Portsmouth-mass_0050.dat
#Random file /home/DATA/sbrieden/Patchy_dr12_mocks/prerecon/original/Random-DR12CMASS-S-V6C-x20.dat
#Number of data elements used: 210564
#Number of random elements used: 4288842
#Effective number of data elements weighted by wcol: 210564.000000
#Effective number of random elements weighted by wcol: 4288842.000000
#Effective number of data elements weighted by wcol*wsys: 210564.000000
#Effective number of random elements weighted by wcol*wsys: 4288842.000000
#Effective redshift value from data 0.598275
#Effective redshift value from randoms 0.597190
#Size of the Box 3700.000000 Mpc/h
#Area of the survey used 2525.000000 deg^2
#Value of alpha: 0.049375
#Normalization using data file
#Normalization using density
#Normalization 4.009167
#Shot noise factor 1.000000
#Shot noise value 4972.244835
#Type of Computation: FFT
#Number of grid cells: 512
#Type of Mass Assigment: TSC
#Type of Yamamoto: GridCenter
#Number of Interlacing steps: 2
#Grid Correction: yes
#Value of Om=0.310000
#Quadrupole as L2
#Octopole as L3
#Hexadecapole as L2L2
#k-centerbin	 k-eff	 Monopole-Pshotnoise	 Dipole	 Quadrupole	 Octopole	 Hexadecapole	 number of modes	 Pshotnoise
0.005000 0.007485 44823.619717 -2976.170443 32607.998365 5117.696962 -1182.135323 846 4972.244835
0.015000 0.016072 62057.444282 2115.187680 42563.168078 8809.659994 32132.169094 6012 4972.244835
0.025000 0.025646 58216.807096 13.763452 27522.278480 3692.964117 9278.359938 16172 4972.244835
0.035000 0.035469 47438.203793 953.903546 10802.219801 1571.730219 -2320.232011 31764 4972.244835
0.045000 0.045378 33828.587175 673.225240 2898.836758 685.483881 -726.963044 52164 4972.244835
0.055000 0.055280 31040.286171 316.550458 11250.229793 109.308606 4700.791994 77396 4972.244835
0.065000 0.065232 27260.020332 457.507149 12642.454604 -207.412381 5.993850 108936 4972.244835
0.075000 0.075229 23566.526620 219.671556 7236.115343 656.351127 -782.454230 144980 4972.244835
0.085000 0.085193 19983.823034 371.921492 5522.082267 92.969571 1009.301333 184854 4972.244835
0.095000 0.095166 16065.205840 311.452295 6176.075370 65.646350 -759.627560 232260 4972.244835
0.105000 0.105155 13944.468393 73.497033 4418.514736 353.277550 -556.579878 282884 4972.244835
0.115000 0.115131 12882.839993 86.757397 4905.181454 275.145643 -36.430764 339084 4972.244835
0.125000 0.125124 11708.572664 161.388811 3203.601551 17.532428 1356.064087 401864 4972.244835
0.135000 0.135125 10750.776335 123.823054 3775.808592 -48.537756 754.351235 468084 4972.244835
0.145000 0.145120 9637.682469 116.261300 2953.258037 129.342913 -397.864769 539940 4972.244835
0.155000 0.155118 8435.925328 96.200691 2177.322919 73.604241 -48.614839 617324 4972.244835
0.165000 0.165105 7596.071517 92.632514 1926.345423 75.515499 703.716673 697452 4972.244835
0.175000 0.175088 7061.961619 57.110281 1889.088140 35.051354 308.082889 785846 4972.244835
0.185000 0.185089 6499.892887 76.988505 1549.161135 68.504696 324.580888 879528 4972.244835
0.195000 0.195093 6069.998168 84.937106 1569.657246 11.183260 513.736461 976596 4972.244835
0.205000 0.205084 5578.127094 47.265275 1120.738628 53.352518 73.155496 1077212 4972.244835
0.215000 0.215076 5054.822045 70.949313 533.999602 67.207935 93.643727 1186908 4972.244835
0.225000 0.225076 4817.519595 65.875074 648.621896 -26.063026 52.043490 1299452 4972.244835
0.235000 0.235073 4542.083677 54.644980 541.339512 28.759987 326.727898 1417356 4972.244835
0.245000 0.245067 4184.874655 78.503219 573.001793 16.704031 522.515055 1539600 4972.244835
0.255000 0.255064 3896.756051 42.900174 620.024533 29.467631 495.679529 1669820 4972.244835
0.265000 0.265061 3728.452105 58.748945 -38.705769 0.425915 465.334392 1801086 4972.244835
0.275000 0.275060 3486.213166 57.745713 269.019024 3.822553 236.241936 1942244 4972.244835
0.285000 0.285062 3228.424612 59.066229 -26.898176 26.379594 326.971063 2084796 4972.244835
0.295000 0.295057 3082.091344 52.132962 5.049196 -22.923327 197.059577 2231868 4972.244835
