#Data file /home/DATA/sbrieden/Patchy_dr12_mocks/prerecon/original/Patchy-Mocks-DR12CMASS-N-V6C-Portsmouth-mass_0002.dat
#Random file /home/DATA/sbrieden/Patchy_dr12_mocks/prerecon/original/Random-DR12CMASS-N-V6C-x20.dat
#Number of data elements used: 590649
#Number of random elements used: 11797448
#Effective number of data elements weighted by wcol: 590649.000000
#Effective number of random elements weighted by wcol: 11797448.000000
#Effective number of data elements weighted by wcol*wsys: 590649.000000
#Effective number of random elements weighted by wcol*wsys: 11797448.000000
#Effective redshift value from data 0.598166
#Effective redshift value from randoms 0.597992
#Size of the Box 3700.000000 Mpc/h
#Area of the survey used 6851.000000 deg^2
#Value of alpha: 0.050057
#Normalization using data file
#Normalization using density
#Normalization 11.102052
#Shot noise factor 1.000000
#Shot noise value 4939.045239
#Type of Computation: FFT
#Number of grid cells: 512
#Type of Mass Assigment: TSC
#Type of Yamamoto: GridCenter
#Number of Interlacing steps: 2
#Grid Correction: yes
#Value of Om=0.310000
#Quadrupole as L2
#Octopole as L3
#Hexadecapole as L2L2
#k-centerbin	 k-eff	 Monopole-Pshotnoise	 Dipole	 Quadrupole	 Octopole	 Hexadecapole	 number of modes	 Pshotnoise
0.005000 0.007485 64530.746000 -1851.321520 39910.329225 -3712.467978 -16332.002466 846 4939.045239
0.015000 0.016072 69311.414880 1547.504889 37754.063483 10555.552856 29525.984789 6012 4939.045239
0.025000 0.025646 58056.078616 1244.593106 26294.473922 2531.659517 7684.554433 16172 4939.045239
0.035000 0.035469 45242.602732 961.363416 25908.503973 2179.269122 2645.075165 31764 4939.045239
0.045000 0.045378 36034.913366 569.930037 14788.535483 674.402857 -2451.638380 52164 4939.045239
0.055000 0.055280 31620.303812 247.675711 10806.878899 681.754695 2449.329193 77396 4939.045239
0.065000 0.065232 28178.721652 411.432669 10582.359500 141.602081 -4046.262996 108936 4939.045239
0.075000 0.075229 24184.950227 336.485968 10059.860246 530.551715 716.927792 144980 4939.045239
0.085000 0.085193 20689.178601 297.455278 6434.653660 226.687861 1202.407534 184854 4939.045239
0.095000 0.095166 17114.493124 288.518490 7402.381026 172.019627 659.471252 232260 4939.045239
0.105000 0.105155 14939.499365 173.548277 5920.607527 271.688385 -0.091107 282884 4939.045239
0.115000 0.115131 13211.916509 129.945288 4575.593057 -18.749191 -513.426921 339084 4939.045239
0.125000 0.125124 11971.842496 115.460580 4478.347834 255.330891 -112.716971 401864 4939.045239
0.135000 0.135125 10676.484835 99.269658 3096.315192 127.982363 -434.536662 468084 4939.045239
0.145000 0.145120 9860.761617 144.393117 2969.488683 40.972247 318.363355 539940 4939.045239
0.155000 0.155118 8655.136359 106.501209 2897.510684 21.247201 269.087997 617324 4939.045239
0.165000 0.165105 7880.677540 73.807608 2410.453035 125.632420 393.716691 697452 4939.045239
0.175000 0.175088 7177.786161 76.566008 1713.394949 73.504187 492.478469 785846 4939.045239
0.185000 0.185089 6553.550153 91.656989 1692.421396 16.905980 410.044216 879528 4939.045239
0.195000 0.195093 6197.992645 52.117538 1401.770524 76.235914 556.277435 976596 4939.045239
0.205000 0.205084 5788.459633 83.261025 1308.677246 -30.782030 211.136435 1077212 4939.045239
0.215000 0.215076 5228.355211 64.556803 1218.634551 50.230891 393.924157 1186908 4939.045239
0.225000 0.225076 4857.906361 62.622798 1043.670441 18.243860 111.175347 1299452 4939.045239
0.235000 0.235073 4431.738818 62.278587 985.450363 11.244234 206.837515 1417356 4939.045239
0.245000 0.245067 4280.738151 53.090185 732.493239 39.920295 58.105971 1539600 4939.045239
0.255000 0.255064 3985.024635 63.274853 626.166531 26.189170 376.029449 1669820 4939.045239
0.265000 0.265061 3747.141353 53.395699 453.464362 17.379911 252.590391 1801086 4939.045239
0.275000 0.275060 3574.116607 47.333768 291.544288 22.492958 234.386583 1942244 4939.045239
0.285000 0.285062 3393.173683 62.180462 287.477473 3.175363 234.974779 2084796 4939.045239
0.295000 0.295057 3124.237942 66.032562 117.168025 5.774482 412.890146 2231868 4939.045239
