#Data file /home/DATA/sbrieden/Patchy_dr12_mocks/prerecon/original/Patchy-Mocks-DR12CMASS-N-V6C-Portsmouth-mass_0049.dat
#Random file /home/DATA/sbrieden/Patchy_dr12_mocks/prerecon/original/Random-DR12CMASS-N-V6C-x20.dat
#Number of data elements used: 591062
#Number of random elements used: 11797448
#Effective number of data elements weighted by wcol: 591062.000000
#Effective number of random elements weighted by wcol: 11797448.000000
#Effective number of data elements weighted by wcol*wsys: 591062.000000
#Effective number of random elements weighted by wcol*wsys: 11797448.000000
#Effective redshift value from data 0.598236
#Effective redshift value from randoms 0.597992
#Size of the Box 3700.000000 Mpc/h
#Area of the survey used 6851.000000 deg^2
#Value of alpha: 0.050106
#Normalization using data file
#Normalization using density
#Normalization 11.110314
#Shot noise factor 1.000000
#Shot noise value 4942.837068
#Type of Computation: FFT
#Number of grid cells: 512
#Type of Mass Assigment: TSC
#Type of Yamamoto: GridCenter
#Number of Interlacing steps: 2
#Grid Correction: yes
#Value of Om=0.310000
#Quadrupole as L2
#Octopole as L3
#Hexadecapole as L2L2
#k-centerbin	 k-eff	 Monopole-Pshotnoise	 Dipole	 Quadrupole	 Octopole	 Hexadecapole	 number of modes	 Pshotnoise
0.005000 0.007485 37415.858783 -3769.623708 5179.425817 -1136.560303 4775.340217 846 4942.837068
0.015000 0.016072 64674.983137 1362.557189 23022.739487 842.350462 -4036.099644 6012 4942.837068
0.025000 0.025646 55354.239155 597.878762 22724.513721 924.676704 -1886.524446 16172 4942.837068
0.035000 0.035469 46068.916236 889.415607 19401.600818 1376.146914 -2117.356953 31764 4942.837068
0.045000 0.045378 36560.382225 754.690991 17172.641917 1034.102969 -3128.762613 52164 4942.837068
0.055000 0.055280 31999.055268 220.501074 11943.535358 610.449345 -237.681448 77396 4942.837068
0.065000 0.065232 27561.162144 418.185655 11028.737578 569.702160 -1148.856906 108936 4942.837068
0.075000 0.075229 24502.370655 243.018380 9835.037839 446.000983 1774.465635 144980 4942.837068
0.085000 0.085193 20445.729968 383.070748 7358.112851 165.447072 -199.460239 184854 4942.837068
0.095000 0.095166 16769.922274 272.643628 5601.045481 237.392080 609.994184 232260 4942.837068
0.105000 0.105155 14484.678387 146.694389 5492.102306 107.707670 -114.280750 282884 4942.837068
0.115000 0.115131 12934.142570 143.317948 3914.886074 165.372103 1141.218314 339084 4942.837068
0.125000 0.125124 12117.258718 83.309541 3463.129561 135.194648 890.767753 401864 4942.837068
0.135000 0.135125 11131.168836 141.859867 3270.899152 65.750522 628.817731 468084 4942.837068
0.145000 0.145120 9712.791909 114.066232 3074.492938 22.999361 289.177634 539940 4942.837068
0.155000 0.155118 8685.304125 105.067083 2544.229675 171.112618 23.050566 617324 4942.837068
0.165000 0.165105 7821.650562 99.638388 2209.190863 -13.239911 348.246655 697452 4942.837068
0.175000 0.175088 7109.846701 64.117793 2265.600623 80.783554 348.213394 785846 4942.837068
0.185000 0.185089 6821.065027 75.689247 1773.085091 24.139791 376.139073 879528 4942.837068
0.195000 0.195093 6293.894197 57.747653 1310.355372 46.567923 69.328123 976596 4942.837068
0.205000 0.205084 5868.503895 81.284051 1235.768662 65.693898 119.991823 1077212 4942.837068
0.215000 0.215076 5334.588900 75.977603 1016.919425 -19.512226 358.273508 1186908 4942.837068
0.225000 0.225076 4934.627166 55.508633 1109.947540 53.075268 406.590293 1299452 4942.837068
0.235000 0.235073 4583.619776 61.971311 710.693377 24.945286 308.681454 1417356 4942.837068
0.245000 0.245067 4311.942893 59.086720 635.288658 29.921330 70.631871 1539600 4942.837068
0.255000 0.255064 4063.185571 65.654766 559.105164 3.165382 87.665946 1669820 4942.837068
0.265000 0.265061 3763.011260 51.755919 345.635486 42.497695 508.771590 1801086 4942.837068
0.275000 0.275060 3559.721278 60.263095 360.012871 -9.484562 395.848596 1942244 4942.837068
0.285000 0.285062 3324.317853 46.607790 350.416328 18.453651 121.774537 2084796 4942.837068
0.295000 0.295057 3215.760002 57.567230 225.383672 8.648110 129.145981 2231868 4942.837068
