#Data file /home/DATA/sbrieden/Patchy_dr12_mocks/prerecon/original/Patchy-Mocks-DR12CMASS-N-V6C-Portsmouth-mass_0080.dat
#Random file /home/DATA/sbrieden/Patchy_dr12_mocks/prerecon/original/Random-DR12CMASS-N-V6C-x20.dat
#Number of data elements used: 587502
#Number of random elements used: 11797448
#Effective number of data elements weighted by wcol: 587502.000000
#Effective number of random elements weighted by wcol: 11797448.000000
#Effective number of data elements weighted by wcol*wsys: 587502.000000
#Effective number of random elements weighted by wcol*wsys: 11797448.000000
#Effective redshift value from data 0.597698
#Effective redshift value from randoms 0.597992
#Size of the Box 3700.000000 Mpc/h
#Area of the survey used 6851.000000 deg^2
#Value of alpha: 0.049775
#Normalization using data file
#Normalization using density
#Normalization 11.040381
#Shot noise factor 1.000000
#Shot noise value 4936.719795
#Type of Computation: FFT
#Number of grid cells: 512
#Type of Mass Assigment: TSC
#Type of Yamamoto: GridCenter
#Number of Interlacing steps: 2
#Grid Correction: yes
#Value of Om=0.310000
#Quadrupole as L2
#Octopole as L3
#Hexadecapole as L2L2
#k-centerbin	 k-eff	 Monopole-Pshotnoise	 Dipole	 Quadrupole	 Octopole	 Hexadecapole	 number of modes	 Pshotnoise
0.005000 0.007485 70150.869227 -2709.354284 18083.640630 20696.941479 42001.980062 846 4936.719795
0.015000 0.016072 68343.417332 2943.357742 30451.253361 6233.175149 32200.380095 6012 4936.719795
0.025000 0.025646 55047.057653 756.095268 24674.228105 1231.262601 -107.237329 16172 4936.719795
0.035000 0.035469 47218.650429 735.106841 24282.970977 1842.198598 -827.307201 31764 4936.719795
0.045000 0.045378 38572.835183 698.245468 20905.223156 1631.248736 4581.919949 52164 4936.719795
0.055000 0.055280 33062.781805 512.999561 11382.746386 257.775102 -4484.376472 77396 4936.719795
0.065000 0.065232 27648.409326 294.676363 9457.201563 664.917229 -100.026499 108936 4936.719795
0.075000 0.075229 24325.190296 358.020032 8158.026929 272.026279 -221.617688 144980 4936.719795
0.085000 0.085193 20339.796909 297.743293 7743.690012 132.916304 -852.775856 184854 4936.719795
0.095000 0.095166 16989.066641 288.832150 5572.599842 336.106251 -703.219839 232260 4936.719795
0.105000 0.105155 14557.833778 125.112233 4414.912373 54.993206 750.321265 282884 4936.719795
0.115000 0.115131 13438.966532 156.790943 4856.925453 96.930989 384.512990 339084 4936.719795
0.125000 0.125124 11674.137605 128.903723 3615.882280 198.674577 358.816420 401864 4936.719795
0.135000 0.135125 10625.227009 86.556312 3608.495503 174.558028 481.927596 468084 4936.719795
0.145000 0.145120 9676.510630 126.848163 2810.687429 35.910225 671.865917 539940 4936.719795
0.155000 0.155118 8406.323845 132.265140 2541.664250 4.697912 213.875254 617324 4936.719795
0.165000 0.165105 7642.161464 64.853779 2475.940138 98.061357 267.636195 697452 4936.719795
0.175000 0.175088 7149.142784 72.784117 1709.691726 89.781941 235.958685 785846 4936.719795
0.185000 0.185089 6601.902074 77.801823 1833.518927 -2.466365 455.727913 879528 4936.719795
0.195000 0.195093 6152.337559 64.110801 1470.204854 79.080272 626.796192 976596 4936.719795
0.205000 0.205084 5766.830484 53.853854 861.910399 45.644384 222.496326 1077212 4936.719795
0.215000 0.215076 5273.436089 83.474874 802.907735 3.205948 330.955612 1186908 4936.719795
0.225000 0.225076 4912.089201 63.305439 1021.176132 32.783137 206.072778 1299452 4936.719795
0.235000 0.235073 4583.388936 60.798416 534.228965 3.034315 246.076982 1417356 4936.719795
0.245000 0.245067 4319.236107 55.671595 478.759229 12.573603 166.982821 1539600 4936.719795
0.255000 0.255064 4056.933084 61.118653 486.019691 -9.452396 -82.642380 1669820 4936.719795
0.265000 0.265061 3820.278181 62.467462 477.881162 28.723167 67.222767 1801086 4936.719795
0.275000 0.275060 3565.974859 55.678238 331.124668 13.545358 207.091457 1942244 4936.719795
0.285000 0.285062 3353.654334 55.807980 163.501898 11.325277 85.822999 2084796 4936.719795
0.295000 0.295057 3182.166307 50.768013 147.942066 14.351656 106.467160 2231868 4936.719795
