#Data file /home/DATA/sbrieden/Patchy_dr12_mocks/prerecon/original/Patchy-Mocks-DR12LOWZ-S-V5C-Portsmouth-mass_0006.dat
#Random file /home/DATA/sbrieden/Patchy_dr12_mocks/prerecon/original/Random-DR12LOWZ-S-V5C-x20.dat
#Number of data elements used: 100117
#Number of random elements used: 2007904
#Effective number of data elements weighted by wcol: 100117.000000
#Effective number of random elements weighted by wcol: 2007904.000000
#Effective number of data elements weighted by wcol*wsys: 100117.000000
#Effective number of random elements weighted by wcol*wsys: 2007904.000000
#Effective redshift value from data 0.329868
#Effective redshift value from randoms 0.330155
#Size of the Box 2500.000000 Mpc/h
#Area of the survey used 2501.000000 deg^2
#Value of alpha: 0.049873
#Normalization using data file
#Normalization using density
#Normalization 1.856713
#Shot noise factor 1.000000
#Shot noise value 3655.701219
#Type of Computation: FFT
#Number of grid cells: 512
#Type of Mass Assigment: TSC
#Type of Yamamoto: GridCenter
#Number of Interlacing steps: 2
#Grid Correction: yes
#Value of Om=0.310000
#Quadrupole as L2
#Octopole as L3
#Hexadecapole as L2L2
#k-centerbin	 k-eff	 Monopole-Pshotnoise	 Dipole	 Quadrupole	 Octopole	 Hexadecapole	 number of modes	 Pshotnoise
0.005000 0.007385 60222.245618 -10244.465750 5449.898935 -22972.797886 -54732.368273 250 3655.701219
0.015000 0.016012 58396.185776 4139.470335 20528.727304 1312.326029 1285.421377 1852 3655.701219
0.025000 0.025646 58146.761378 2854.279542 37270.926349 381.397094 -4181.297802 5020 3655.701219
0.035000 0.035469 47088.732500 1347.860867 46704.666348 7262.009591 15176.841196 9756 3655.701219
0.045000 0.045368 39954.018489 1213.531988 27216.784048 4774.012885 10839.455605 16108 3655.701219
0.055000 0.055314 33239.928780 618.083606 12847.125991 2885.619486 10124.001587 24064 3655.701219
0.065000 0.065258 28980.079699 7.004089 8047.358656 -414.309147 -3462.310789 33396 3655.701219
0.075000 0.075209 26751.096778 717.453012 8984.719991 458.287346 -650.757986 44596 3655.701219
0.085000 0.085175 21625.309736 746.309159 8523.602052 851.155740 4421.955669 57124 3655.701219
0.095000 0.095157 18024.304769 250.338249 5022.290566 501.590485 1587.759055 71620 3655.701219
0.105000 0.105162 15598.536061 312.693231 4075.621653 325.361432 947.576679 87552 3655.701219
0.115000 0.115148 14193.968903 189.193921 3713.146976 168.064734 1578.787403 104524 3655.701219
0.125000 0.125146 12675.569673 212.816890 3503.500951 155.340580 1268.727196 124228 3655.701219
0.135000 0.135146 11360.313410 231.161089 2896.159921 -158.749946 -70.676745 144204 3655.701219
0.145000 0.145132 10343.240387 126.217217 2751.594271 324.716352 -33.928560 166492 3655.701219
0.155000 0.155114 8937.461390 147.850732 1566.830394 230.719203 275.254802 189964 3655.701219
0.165000 0.165102 8374.886784 136.651612 1983.454383 -11.932793 170.632629 215640 3655.701219
0.175000 0.175105 7697.116519 33.349044 2344.892229 5.823646 357.929680 242836 3655.701219
0.185000 0.185097 7323.444651 133.695815 1230.565007 179.003253 751.519696 270556 3655.701219
0.195000 0.195085 6722.037251 74.549469 1058.956458 72.131190 556.056162 301084 3655.701219
0.205000 0.205080 6061.507538 106.028793 1046.615558 2.170198 534.489117 332628 3655.701219
0.215000 0.215092 5484.115683 67.950641 1135.492717 65.463432 695.519958 367216 3655.701219
0.225000 0.225099 5252.511372 60.322671 605.694354 73.870341 526.793357 400444 3655.701219
0.235000 0.235081 4959.673674 62.622414 343.826564 -8.294369 656.189281 436500 3655.701219
0.245000 0.245077 4497.954199 97.664770 646.074680 19.187774 441.167484 475900 3655.701219
0.255000 0.255082 4256.110952 45.853919 297.579751 -14.556313 -128.367247 514900 3655.701219
0.265000 0.265074 4017.351025 48.179436 372.316816 19.458569 193.389633 555408 3655.701219
0.275000 0.275066 3856.212130 49.102668 228.434263 81.483069 28.345026 598684 3655.701219
0.285000 0.285066 3640.152239 45.956722 470.354198 -64.899717 106.826843 643228 3655.701219
0.295000 0.295058 3389.423908 63.602285 122.829668 72.576877 332.159682 688036 3655.701219
