#Data file /home/DATA/sbrieden/Patchy_dr12_mocks/prerecon/original/Patchy-Mocks-DR12LOWZ-N-V5C-Portsmouth-mass_0030.dat
#Random file /home/DATA/sbrieden/Patchy_dr12_mocks/prerecon/original/Random-DR12LOWZ-N-V5C-x20.dat
#Number of data elements used: 235153
#Number of random elements used: 4685323
#Effective number of data elements weighted by wcol: 235153.000000
#Effective number of random elements weighted by wcol: 4685323.000000
#Effective number of data elements weighted by wcol*wsys: 235153.000000
#Effective number of random elements weighted by wcol*wsys: 4685323.000000
#Effective redshift value from data 0.329544
#Effective redshift value from randoms 0.330058
#Size of the Box 2500.000000 Mpc/h
#Area of the survey used 5826.000000 deg^2
#Value of alpha: 0.050123
#Normalization using data file
#Normalization using density
#Normalization 4.356831
#Shot noise factor 1.000000
#Shot noise value 3647.583255
#Type of Computation: FFT
#Number of grid cells: 512
#Type of Mass Assigment: TSC
#Type of Yamamoto: GridCenter
#Number of Interlacing steps: 2
#Grid Correction: yes
#Value of Om=0.310000
#Quadrupole as L2
#Octopole as L3
#Hexadecapole as L2L2
#k-centerbin	 k-eff	 Monopole-Pshotnoise	 Dipole	 Quadrupole	 Octopole	 Hexadecapole	 number of modes	 Pshotnoise
0.005000 0.007385 63039.247030 1741.386663 39945.719154 13240.657000 -9711.684538 250 3647.583255
0.015000 0.016012 67471.970959 3747.625085 54004.265550 15572.987306 28277.208595 1852 3647.583255
0.025000 0.025646 65222.545164 1826.018394 37886.859850 4755.976673 1211.333642 5020 3647.583255
0.035000 0.035469 52625.194532 2405.066546 22391.336305 4931.370913 -5254.387796 9756 3647.583255
0.045000 0.045368 41751.064708 384.816215 7898.183886 1378.274142 -1531.063475 16108 3647.583255
0.055000 0.055314 35627.479242 859.322628 7950.429006 -861.752968 -1472.900274 24064 3647.583255
0.065000 0.065258 30612.890160 746.550447 7229.222797 -796.800652 -3232.271845 33396 3647.583255
0.075000 0.075209 25653.128783 655.151479 9833.487327 1507.533301 -634.359406 44596 3647.583255
0.085000 0.085175 21652.029092 465.116615 6351.900183 168.604240 -1081.212562 57124 3647.583255
0.095000 0.095157 17983.029162 394.374965 5679.877990 462.388556 486.611926 71620 3647.583255
0.105000 0.105162 15622.833113 329.536491 5515.723669 116.135565 -420.206481 87552 3647.583255
0.115000 0.115148 13982.155662 116.132435 5014.859417 504.173106 299.826133 104524 3647.583255
0.125000 0.125146 12356.465845 179.042151 3434.573558 57.084866 -574.164543 124228 3647.583255
0.135000 0.135146 11551.391017 227.717636 3780.819701 119.846747 148.010377 144204 3647.583255
0.145000 0.145132 10168.576331 227.511503 3435.346731 5.527374 -293.164611 166492 3647.583255
0.155000 0.155114 8999.215205 53.391063 2936.646480 243.323338 537.400990 189964 3647.583255
0.165000 0.165102 8463.616717 154.133685 1981.643556 36.641828 -756.172028 215640 3647.583255
0.175000 0.175105 7583.901771 90.836604 1712.146463 41.281733 -226.213827 242836 3647.583255
0.185000 0.185097 7044.088004 110.642625 1585.454524 169.141718 -22.323744 270556 3647.583255
0.195000 0.195085 6490.377952 65.311897 1419.677064 12.975676 403.587983 301084 3647.583255
0.205000 0.205080 5964.904554 97.894811 1191.438839 48.975839 71.106989 332628 3647.583255
0.215000 0.215092 5483.561447 48.294319 1143.999951 54.605058 561.027106 367216 3647.583255
0.225000 0.225099 5141.115573 91.658911 1075.033045 25.061662 111.584907 400444 3647.583255
0.235000 0.235081 4789.898668 42.692156 676.485420 77.330495 25.039667 436500 3647.583255
0.245000 0.245077 4488.987959 75.722050 525.514103 -6.644522 0.580738 475900 3647.583255
0.255000 0.255082 4221.930122 73.758805 477.707128 25.624933 155.783766 514900 3647.583255
0.265000 0.265074 3972.952221 38.642302 271.174844 66.305925 197.393088 555408 3647.583255
0.275000 0.275066 3731.119015 65.412860 274.940029 -5.155522 360.729199 598684 3647.583255
0.285000 0.285066 3422.027818 51.462799 199.391415 56.294634 456.300977 643228 3647.583255
0.295000 0.295058 3151.873429 57.798401 91.644418 -33.214206 302.444924 688036 3647.583255
