#Data file /home/DATA/sbrieden/Patchy_dr12_mocks/prerecon/original/Patchy-Mocks-DR12LOWZ-S-V5C-Portsmouth-mass_0012.dat
#Random file /home/DATA/sbrieden/Patchy_dr12_mocks/prerecon/original/Random-DR12LOWZ-S-V5C-x20.dat
#Number of data elements used: 100939
#Number of random elements used: 2007904
#Effective number of data elements weighted by wcol: 100939.000000
#Effective number of random elements weighted by wcol: 2007904.000000
#Effective number of data elements weighted by wcol*wsys: 100939.000000
#Effective number of random elements weighted by wcol*wsys: 2007904.000000
#Effective redshift value from data 0.328892
#Effective redshift value from randoms 0.330155
#Size of the Box 2500.000000 Mpc/h
#Area of the survey used 2501.000000 deg^2
#Value of alpha: 0.050099
#Normalization using data file
#Normalization using density
#Normalization 1.867737
#Shot noise factor 1.000000
#Shot noise value 3637.206023
#Type of Computation: FFT
#Number of grid cells: 512
#Type of Mass Assigment: TSC
#Type of Yamamoto: GridCenter
#Number of Interlacing steps: 2
#Grid Correction: yes
#Value of Om=0.310000
#Quadrupole as L2
#Octopole as L3
#Hexadecapole as L2L2
#k-centerbin	 k-eff	 Monopole-Pshotnoise	 Dipole	 Quadrupole	 Octopole	 Hexadecapole	 number of modes	 Pshotnoise
0.005000 0.007385 44622.524545 -7708.045179 33454.467214 -6427.270686 -32072.224760 250 3637.206023
0.015000 0.016012 61765.288210 -476.736477 25397.605444 9359.402239 17344.312819 1852 3637.206023
0.025000 0.025646 63871.584191 2944.904043 35643.475075 3639.175817 -3955.839656 5020 3637.206023
0.035000 0.035469 57522.342207 2011.362995 33096.835740 2719.534790 -6838.521508 9756 3637.206023
0.045000 0.045368 41654.689038 593.227774 6575.594835 3495.649261 -5479.704934 16108 3637.206023
0.055000 0.055314 30751.398932 1107.424277 136.337679 -1138.368330 -631.486420 24064 3637.206023
0.065000 0.065258 28208.060381 663.733163 9035.727726 3.668464 2404.268437 33396 3637.206023
0.075000 0.075209 24322.251851 414.158685 7606.484339 673.390364 4316.171613 44596 3637.206023
0.085000 0.085175 21388.499947 166.325820 5112.089252 1342.518051 -432.346018 57124 3637.206023
0.095000 0.095157 18711.985543 495.526495 1184.479549 -1156.397825 174.502524 71620 3637.206023
0.105000 0.105162 15990.533296 378.559364 6479.925790 26.376148 -655.025770 87552 3637.206023
0.115000 0.115148 14520.446761 137.588713 5607.448051 765.974996 745.716065 104524 3637.206023
0.125000 0.125146 12891.198615 291.297039 3093.927141 -238.665534 -1252.896168 124228 3637.206023
0.135000 0.135146 11692.641846 132.489227 3994.428550 445.258453 1150.870293 144204 3637.206023
0.145000 0.145132 10482.395176 113.154773 2177.337141 324.660991 -39.727213 166492 3637.206023
0.155000 0.155114 9196.199589 219.330745 1910.324775 30.826608 977.498385 189964 3637.206023
0.165000 0.165102 8189.324371 119.427075 2076.329674 -95.519784 371.418601 215640 3637.206023
0.175000 0.175105 7759.446186 63.265545 2176.988194 153.642393 461.739018 242836 3637.206023
0.185000 0.185097 7131.202624 136.518387 1313.513424 67.016019 -55.350581 270556 3637.206023
0.195000 0.195085 6676.739161 56.837047 1698.838434 32.145303 288.682701 301084 3637.206023
0.205000 0.205080 6179.562486 76.733200 857.650268 166.062912 321.346247 332628 3637.206023
0.215000 0.215092 5550.329980 111.018955 704.446292 -33.824250 322.975643 367216 3637.206023
0.225000 0.225099 5061.734776 75.400870 849.722737 44.795555 344.654020 400444 3637.206023
0.235000 0.235081 4676.062904 56.783629 868.427209 -11.648588 489.076611 436500 3637.206023
0.245000 0.245077 4468.026632 72.493224 641.952737 50.802015 203.718588 475900 3637.206023
0.255000 0.255082 4185.322869 60.093557 553.847705 -16.211774 251.125324 514900 3637.206023
0.265000 0.265074 4019.535902 25.446452 214.081442 124.595904 91.969299 555408 3637.206023
0.275000 0.275066 3679.909027 100.290105 229.738043 -58.310409 544.782965 598684 3637.206023
0.285000 0.285066 3449.357962 23.551837 361.709565 10.378609 133.173327 643228 3637.206023
0.295000 0.295058 3262.081280 68.213513 160.506609 25.061673 71.229723 688036 3637.206023
