#Data file /home/DATA/sbrieden/Patchy_dr12_mocks/prerecon/original/Patchy-Mocks-DR12CMASS-N-V6C-Portsmouth-mass_0042.dat
#Random file /home/DATA/sbrieden/Patchy_dr12_mocks/prerecon/original/Random-DR12CMASS-N-V6C-x20.dat
#Number of data elements used: 594065
#Number of random elements used: 11797448
#Effective number of data elements weighted by wcol: 594065.000000
#Effective number of random elements weighted by wcol: 11797448.000000
#Effective number of data elements weighted by wcol*wsys: 594065.000000
#Effective number of random elements weighted by wcol*wsys: 11797448.000000
#Effective redshift value from data 0.597781
#Effective redshift value from randoms 0.597992
#Size of the Box 3700.000000 Mpc/h
#Area of the survey used 6851.000000 deg^2
#Value of alpha: 0.050276
#Normalization using data file
#Normalization using density
#Normalization 11.160392
#Shot noise factor 1.000000
#Shot noise value 4926.974247
#Type of Computation: FFT
#Number of grid cells: 512
#Type of Mass Assigment: TSC
#Type of Yamamoto: GridCenter
#Number of Interlacing steps: 2
#Grid Correction: yes
#Value of Om=0.310000
#Quadrupole as L2
#Octopole as L3
#Hexadecapole as L2L2
#k-centerbin	 k-eff	 Monopole-Pshotnoise	 Dipole	 Quadrupole	 Octopole	 Hexadecapole	 number of modes	 Pshotnoise
0.005000 0.007485 72158.005464 23.979212 14268.424317 -8715.110413 -18011.418558 846 4926.974247
0.015000 0.016072 74791.400337 1927.169530 22097.460146 -2299.342889 -17989.738196 6012 4926.974247
0.025000 0.025646 60405.486686 996.561235 33532.021645 4368.669985 3807.419592 16172 4926.974247
0.035000 0.035469 46015.335212 1304.444481 25328.315455 1982.334605 -1207.062636 31764 4926.974247
0.045000 0.045378 37731.682334 260.114661 12754.649964 1301.944039 -1265.399898 52164 4926.974247
0.055000 0.055280 33353.148937 571.609912 14405.878917 191.175855 -427.769363 77396 4926.974247
0.065000 0.065232 27484.081350 379.117638 12677.009483 846.549579 1862.082206 108936 4926.974247
0.075000 0.075229 24199.644703 240.141744 10274.708917 475.996281 1075.193801 144980 4926.974247
0.085000 0.085193 20855.576166 397.725704 8205.831671 173.674187 2029.658449 184854 4926.974247
0.095000 0.095166 17291.362931 239.948149 7405.725503 203.744705 1624.430233 232260 4926.974247
0.105000 0.105155 14859.998613 176.547413 6267.960106 360.358105 983.086833 282884 4926.974247
0.115000 0.115131 13214.026513 125.640004 3916.427088 131.169828 1218.226174 339084 4926.974247
0.125000 0.125124 12009.861961 145.294087 3826.307083 89.040957 1353.734715 401864 4926.974247
0.135000 0.135125 10764.805708 105.981887 3481.548248 92.905514 1180.283782 468084 4926.974247
0.145000 0.145120 9800.518393 123.435403 3272.150493 79.494516 674.157267 539940 4926.974247
0.155000 0.155118 8748.202461 101.726484 2752.014466 101.904861 353.228183 617324 4926.974247
0.165000 0.165105 7862.460610 99.560125 2274.793663 65.648107 346.906752 697452 4926.974247
0.175000 0.175088 7190.888621 66.874346 1896.946036 26.615617 404.934461 785846 4926.974247
0.185000 0.185089 6741.811696 78.927788 1713.666772 55.722797 566.517672 879528 4926.974247
0.195000 0.195093 6186.365241 59.442681 1464.684270 65.603060 437.097112 976596 4926.974247
0.205000 0.205084 5833.935334 77.524332 1215.295955 3.395188 439.305881 1077212 4926.974247
0.215000 0.215076 5276.992928 77.931705 1239.151996 21.267639 313.379253 1186908 4926.974247
0.225000 0.225076 4922.207997 51.486877 1047.716091 29.697238 186.631178 1299452 4926.974247
0.235000 0.235073 4676.278152 54.199833 955.754554 37.491626 102.167817 1417356 4926.974247
0.245000 0.245067 4278.695467 70.717613 627.105962 30.635832 101.260594 1539600 4926.974247
0.255000 0.255064 4045.262557 51.548358 567.514343 -6.436765 447.676915 1669820 4926.974247
0.265000 0.265061 3812.599423 63.242113 515.465903 24.357898 35.338419 1801086 4926.974247
0.275000 0.275060 3593.515448 61.439136 433.902142 2.057708 224.734228 1942244 4926.974247
0.285000 0.285062 3344.689000 50.089556 345.467346 23.505942 196.159355 2084796 4926.974247
0.295000 0.295057 3207.879742 52.989366 256.881832 29.784066 193.184275 2231868 4926.974247
