#Data file /home/DATA/sbrieden/Patchy_dr12_mocks/prerecon/original/Patchy-Mocks-DR12CMASS-S-V6C-Portsmouth-mass_0029.dat
#Random file /home/DATA/sbrieden/Patchy_dr12_mocks/prerecon/original/Random-DR12CMASS-S-V6C-x20.dat
#Number of data elements used: 214313
#Number of random elements used: 4288842
#Effective number of data elements weighted by wcol: 214313.000000
#Effective number of random elements weighted by wcol: 4288842.000000
#Effective number of data elements weighted by wcol*wsys: 214313.000000
#Effective number of random elements weighted by wcol*wsys: 4288842.000000
#Effective redshift value from data 0.597167
#Effective redshift value from randoms 0.597190
#Size of the Box 3700.000000 Mpc/h
#Area of the survey used 2525.000000 deg^2
#Value of alpha: 0.049912
#Normalization using data file
#Normalization using density
#Normalization 4.065873
#Shot noise factor 1.000000
#Shot noise value 4926.589024
#Type of Computation: FFT
#Number of grid cells: 512
#Type of Mass Assigment: TSC
#Type of Yamamoto: GridCenter
#Number of Interlacing steps: 2
#Grid Correction: yes
#Value of Om=0.310000
#Quadrupole as L2
#Octopole as L3
#Hexadecapole as L2L2
#k-centerbin	 k-eff	 Monopole-Pshotnoise	 Dipole	 Quadrupole	 Octopole	 Hexadecapole	 number of modes	 Pshotnoise
0.005000 0.007485 68398.699518 -866.368424 -4401.016577 -26362.660545 -53751.202953 846 4926.589024
0.015000 0.016072 67547.345840 1988.041943 25689.409989 4747.104213 -2917.775371 6012 4926.589024
0.025000 0.025646 55475.610345 419.513692 26631.462244 3745.761538 12348.446203 16172 4926.589024
0.035000 0.035469 46438.454823 1108.430035 16730.913296 -287.700749 -555.638868 31764 4926.589024
0.045000 0.045378 33785.035215 714.179159 12195.508927 1823.519342 -2881.127474 52164 4926.589024
0.055000 0.055280 30074.475967 329.905558 7230.133942 -547.239898 -2927.914849 77396 4926.589024
0.065000 0.065232 27559.479640 95.125066 10737.455647 1318.723043 -801.992586 108936 4926.589024
0.075000 0.075229 23913.672433 454.197770 5446.769013 -401.629192 -2990.542930 144980 4926.589024
0.085000 0.085193 19349.426873 320.519248 5759.064864 358.393861 -1435.588862 184854 4926.589024
0.095000 0.095166 16634.566793 244.891036 6779.940939 25.720018 227.524612 232260 4926.589024
0.105000 0.105155 14274.686069 168.829782 4793.278491 256.071066 -1137.355918 282884 4926.589024
0.115000 0.115131 13080.739565 92.764541 3959.582670 161.443946 989.632829 339084 4926.589024
0.125000 0.125124 11951.301168 123.843223 3650.612495 160.231808 828.046012 401864 4926.589024
0.135000 0.135125 10638.779550 142.145548 3123.471998 97.886222 1035.573085 468084 4926.589024
0.145000 0.145120 9421.535454 105.679893 3138.942146 4.268510 895.039248 539940 4926.589024
0.155000 0.155118 8618.651712 103.693845 2757.482775 78.583603 525.051837 617324 4926.589024
0.165000 0.165105 7840.232221 87.029288 2412.054482 51.787250 450.681266 697452 4926.589024
0.175000 0.175088 7225.668216 55.998432 1768.388403 70.226620 162.441600 785846 4926.589024
0.185000 0.185089 6784.880758 70.035578 1767.632828 85.054871 649.829409 879528 4926.589024
0.195000 0.195093 6324.443848 72.700104 1788.378151 16.067706 318.072443 976596 4926.589024
0.205000 0.205084 5685.654433 78.132691 990.088968 66.837831 553.937516 1077212 4926.589024
0.215000 0.215076 5251.745932 82.923829 894.504793 -13.649241 112.977489 1186908 4926.589024
0.225000 0.225076 4882.281401 68.223360 663.805430 3.736508 115.616873 1299452 4926.589024
0.235000 0.235073 4429.131967 46.998115 820.213656 41.292840 74.786041 1417356 4926.589024
0.245000 0.245067 4239.779918 70.048437 652.031491 28.417482 212.251143 1539600 4926.589024
0.255000 0.255064 3863.886282 67.761355 567.374641 8.649545 594.096135 1669820 4926.589024
0.265000 0.265061 3715.429579 41.731205 445.610111 25.477619 410.786043 1801086 4926.589024
0.275000 0.275060 3547.687223 49.317566 296.012624 -9.720676 342.650154 1942244 4926.589024
0.285000 0.285062 3438.459923 43.753472 291.352174 24.548951 130.212627 2084796 4926.589024
0.295000 0.295057 3282.793861 68.878233 300.604397 -7.288033 329.064385 2231868 4926.589024
