#Data file /home/DATA/sbrieden/Patchy_dr12_mocks/prerecon/original/Patchy-Mocks-DR12LOWZ-N-V5C-Portsmouth-mass_0093.dat
#Random file /home/DATA/sbrieden/Patchy_dr12_mocks/prerecon/original/Random-DR12LOWZ-N-V5C-x20.dat
#Number of data elements used: 234393
#Number of random elements used: 4685323
#Effective number of data elements weighted by wcol: 234393.000000
#Effective number of random elements weighted by wcol: 4685323.000000
#Effective number of data elements weighted by wcol*wsys: 234393.000000
#Effective number of random elements weighted by wcol*wsys: 4685323.000000
#Effective redshift value from data 0.329302
#Effective redshift value from randoms 0.330058
#Size of the Box 2500.000000 Mpc/h
#Area of the survey used 5826.000000 deg^2
#Value of alpha: 0.049914
#Normalization using data file
#Normalization using density
#Normalization 4.339482
#Shot noise factor 1.000000
#Shot noise value 3644.292175
#Type of Computation: FFT
#Number of grid cells: 512
#Type of Mass Assigment: TSC
#Type of Yamamoto: GridCenter
#Number of Interlacing steps: 2
#Grid Correction: yes
#Value of Om=0.310000
#Quadrupole as L2
#Octopole as L3
#Hexadecapole as L2L2
#k-centerbin	 k-eff	 Monopole-Pshotnoise	 Dipole	 Quadrupole	 Octopole	 Hexadecapole	 number of modes	 Pshotnoise
0.005000 0.007385 51231.558533 538.845516 -2898.785297 -6749.228008 -18529.812028 250 3644.292175
0.015000 0.016012 61002.935008 -377.957210 33853.317923 3767.851577 -10374.102774 1852 3644.292175
0.025000 0.025646 63923.312446 4157.284541 39325.595549 4604.391498 10997.323873 5020 3644.292175
0.035000 0.035469 48724.618061 530.169233 29486.202267 7304.520279 25217.271274 9756 3644.292175
0.045000 0.045368 44210.052831 1737.759236 17283.559105 -100.038591 -8062.773823 16108 3644.292175
0.055000 0.055314 33662.945795 484.388262 12700.221589 1890.861224 -6167.797275 24064 3644.292175
0.065000 0.065258 29901.428183 698.137200 8630.775683 55.804151 -6067.482571 33396 3644.292175
0.075000 0.075209 25259.255362 483.472224 8716.246577 1159.895186 560.048411 44596 3644.292175
0.085000 0.085175 21187.771725 664.893083 6899.012375 -454.055807 -871.787210 57124 3644.292175
0.095000 0.095157 18755.960054 260.299780 6027.087234 670.845098 -306.080820 71620 3644.292175
0.105000 0.105162 16055.310353 382.015262 7069.175380 370.661572 1980.318539 87552 3644.292175
0.115000 0.115148 13828.787197 284.646257 5525.710028 147.591628 -236.670766 104524 3644.292175
0.125000 0.125146 12723.103067 79.647679 4176.830819 200.549995 -240.422882 124228 3644.292175
0.135000 0.135146 11509.065021 250.406878 3517.028967 244.992353 -492.627971 144204 3644.292175
0.145000 0.145132 10223.623126 91.112827 3036.882217 288.300017 -112.092291 166492 3644.292175
0.155000 0.155114 9239.518798 175.631430 2259.049606 -170.968705 -744.890538 189964 3644.292175
0.165000 0.165102 8257.731152 117.065212 2491.336595 229.634778 -665.535210 215640 3644.292175
0.175000 0.175105 7593.924205 134.054666 1989.954388 6.448838 442.754192 242836 3644.292175
0.185000 0.185097 7098.069994 67.855917 1900.671635 185.396904 242.683298 270556 3644.292175
0.195000 0.195085 6485.608843 69.356074 1408.013530 3.449313 173.701302 301084 3644.292175
0.205000 0.205080 5966.317034 83.735307 1043.399728 89.652521 -269.633812 332628 3644.292175
0.215000 0.215092 5561.321331 83.935279 909.936054 37.644524 48.452528 367216 3644.292175
0.225000 0.225099 5219.718585 89.643385 809.852739 25.498523 526.065433 400444 3644.292175
0.235000 0.235081 4717.808774 63.874747 792.326990 20.615750 131.832521 436500 3644.292175
0.245000 0.245077 4408.355662 48.416403 487.011367 24.609628 -72.638368 475900 3644.292175
0.255000 0.255082 4216.506664 44.356697 385.348502 68.698161 139.125837 514900 3644.292175
0.265000 0.265074 3937.219618 86.263964 168.401411 -22.165088 157.164868 555408 3644.292175
0.275000 0.275066 3656.808840 35.091042 290.169120 26.096715 247.784336 598684 3644.292175
0.285000 0.285066 3549.046522 64.965120 171.819373 17.957654 190.454518 643228 3644.292175
0.295000 0.295058 3323.014477 44.170479 -35.565289 32.995843 276.456129 688036 3644.292175
