#Data file /home/DATA/sbrieden/Patchy_dr12_mocks/prerecon/original/Patchy-Mocks-DR12CMASS-S-V6C-Portsmouth-mass_0006.dat
#Random file /home/DATA/sbrieden/Patchy_dr12_mocks/prerecon/original/Random-DR12CMASS-S-V6C-x20.dat
#Number of data elements used: 214691
#Number of random elements used: 4288842
#Effective number of data elements weighted by wcol: 214691.000000
#Effective number of random elements weighted by wcol: 4288842.000000
#Effective number of data elements weighted by wcol*wsys: 214691.000000
#Effective number of random elements weighted by wcol*wsys: 4288842.000000
#Effective redshift value from data 0.597652
#Effective redshift value from randoms 0.597190
#Size of the Box 3700.000000 Mpc/h
#Area of the survey used 2525.000000 deg^2
#Value of alpha: 0.050107
#Normalization using data file
#Normalization using density
#Normalization 4.076927
#Shot noise factor 1.000000
#Shot noise value 4945.176749
#Type of Computation: FFT
#Number of grid cells: 512
#Type of Mass Assigment: TSC
#Type of Yamamoto: GridCenter
#Number of Interlacing steps: 2
#Grid Correction: yes
#Value of Om=0.310000
#Quadrupole as L2
#Octopole as L3
#Hexadecapole as L2L2
#k-centerbin	 k-eff	 Monopole-Pshotnoise	 Dipole	 Quadrupole	 Octopole	 Hexadecapole	 number of modes	 Pshotnoise
0.005000 0.007485 56816.103789 -5277.256384 -22159.348840 -28378.444551 -48142.232508 846 4945.176749
0.015000 0.016072 74928.153867 1784.225936 26290.336110 1911.380903 -2777.893667 6012 4945.176749
0.025000 0.025646 56456.306359 1736.501684 20472.937877 2905.748784 1449.781121 16172 4945.176749
0.035000 0.035469 45228.246012 773.445924 18411.381693 898.649364 8702.140753 31764 4945.176749
0.045000 0.045378 37048.286846 511.071665 17199.897519 1477.288052 5484.875276 52164 4945.176749
0.055000 0.055280 33326.897478 319.904629 15087.551713 820.278842 6647.280316 77396 4945.176749
0.065000 0.065232 27948.242752 259.464521 8227.843875 524.204865 2682.865192 108936 4945.176749
0.075000 0.075229 24553.464401 446.117149 8390.937689 254.237399 1492.952117 144980 4945.176749
0.085000 0.085193 20754.305204 412.447480 7632.860746 -38.663619 -1922.884143 184854 4945.176749
0.095000 0.095166 16045.798523 234.954426 7558.795325 295.124341 -638.673986 232260 4945.176749
0.105000 0.105155 14392.912892 120.868487 5098.363003 252.441558 -804.153645 282884 4945.176749
0.115000 0.115131 12888.676027 120.995003 5065.351840 116.574415 -13.470443 339084 4945.176749
0.125000 0.125124 11573.860586 101.242798 2993.656398 340.193962 -277.399485 401864 4945.176749
0.135000 0.135125 10694.589025 123.085615 2932.233718 -145.007664 -673.248443 468084 4945.176749
0.145000 0.145120 9693.446277 99.663380 2987.375016 137.597582 655.904534 539940 4945.176749
0.155000 0.155118 8708.761098 151.856939 2462.721480 31.862788 63.906613 617324 4945.176749
0.165000 0.165105 7561.219301 73.698371 2584.909118 33.567377 -4.792704 697452 4945.176749
0.175000 0.175088 7307.480683 60.903084 1995.201641 118.643618 152.575306 785846 4945.176749
0.185000 0.185089 6758.274296 83.393521 1745.781191 -28.515590 -92.347611 879528 4945.176749
0.195000 0.195093 6224.521333 72.051344 1450.424970 105.923580 19.259171 976596 4945.176749
0.205000 0.205084 5635.277690 67.891451 1514.720229 19.855853 -5.544633 1077212 4945.176749
0.215000 0.215076 5169.543447 71.152796 1176.638330 4.304852 -310.394224 1186908 4945.176749
0.225000 0.225076 4849.762265 51.587305 1083.871579 70.055009 108.623512 1299452 4945.176749
0.235000 0.235073 4560.436659 61.939582 915.850738 -15.369652 372.933657 1417356 4945.176749
0.245000 0.245067 4367.137164 72.358206 789.019041 41.227459 -49.357163 1539600 4945.176749
0.255000 0.255064 3968.485332 51.917570 485.235813 7.228703 334.402931 1669820 4945.176749
0.265000 0.265061 3824.724581 58.917880 629.624573 20.903807 182.564445 1801086 4945.176749
0.275000 0.275060 3572.335078 55.393018 231.512486 17.795508 50.105989 1942244 4945.176749
0.285000 0.285062 3381.902217 54.555614 212.019252 17.811980 350.937940 2084796 4945.176749
0.295000 0.295057 3130.258495 60.202455 266.089504 -16.449409 203.553133 2231868 4945.176749
