#Data file /home/DATA/sbrieden/Patchy_dr12_mocks/prerecon/original/Patchy-Mocks-DR12CMASS-S-V6C-Portsmouth-mass_0005.dat
#Random file /home/DATA/sbrieden/Patchy_dr12_mocks/prerecon/original/Random-DR12CMASS-S-V6C-x20.dat
#Number of data elements used: 211168
#Number of random elements used: 4288842
#Effective number of data elements weighted by wcol: 211168.000000
#Effective number of random elements weighted by wcol: 4288842.000000
#Effective number of data elements weighted by wcol*wsys: 211168.000000
#Effective number of random elements weighted by wcol*wsys: 4288842.000000
#Effective redshift value from data 0.597529
#Effective redshift value from randoms 0.597190
#Size of the Box 3700.000000 Mpc/h
#Area of the survey used 2525.000000 deg^2
#Value of alpha: 0.049328
#Normalization using data file
#Normalization using density
#Normalization 4.011518
#Shot noise factor 1.000000
#Shot noise value 4949.056820
#Type of Computation: FFT
#Number of grid cells: 512
#Type of Mass Assigment: TSC
#Type of Yamamoto: GridCenter
#Number of Interlacing steps: 2
#Grid Correction: yes
#Value of Om=0.310000
#Quadrupole as L2
#Octopole as L3
#Hexadecapole as L2L2
#k-centerbin	 k-eff	 Monopole-Pshotnoise	 Dipole	 Quadrupole	 Octopole	 Hexadecapole	 number of modes	 Pshotnoise
0.005000 0.007485 39289.476378 -284.334271 27876.096624 4000.796684 -3493.882419 846 4949.056820
0.015000 0.016072 62152.255103 -269.897977 17582.925799 7862.974998 17522.123221 6012 4949.056820
0.025000 0.025646 56009.096247 470.977051 19693.164533 83.350310 5542.242824 16172 4949.056820
0.035000 0.035469 47077.696178 1581.701718 18250.350182 1344.501075 -4876.937641 31764 4949.056820
0.045000 0.045378 35859.908971 394.051864 12699.118305 859.910954 334.770816 52164 4949.056820
0.055000 0.055280 30887.067259 214.556301 11207.023183 435.027993 -789.814015 77396 4949.056820
0.065000 0.065232 27305.291393 433.403181 7653.266612 449.765868 -1439.980088 108936 4949.056820
0.075000 0.075229 23507.870109 321.794408 6047.226874 559.269038 3026.892339 144980 4949.056820
0.085000 0.085193 19275.672413 300.112358 7298.227522 -289.969346 -358.575348 184854 4949.056820
0.095000 0.095166 16531.834439 287.612034 4847.739937 358.433669 -532.093185 232260 4949.056820
0.105000 0.105155 13991.385942 125.278905 4575.315610 88.817745 -537.702990 282884 4949.056820
0.115000 0.115131 12943.503463 103.041106 3239.052522 172.461016 -1348.015864 339084 4949.056820
0.125000 0.125124 11560.028040 140.953652 3893.981088 2.691525 820.059051 401864 4949.056820
0.135000 0.135125 10994.697368 100.454560 3349.504172 191.440195 913.052709 468084 4949.056820
0.145000 0.145120 9398.662982 134.675039 2371.038093 99.490517 1025.452999 539940 4949.056820
0.155000 0.155118 8548.709023 97.235219 2010.050650 13.383834 839.433479 617324 4949.056820
0.165000 0.165105 7826.074226 76.345775 1876.182769 41.727534 351.661271 697452 4949.056820
0.175000 0.175088 7112.755361 89.675923 1816.090179 79.426737 -9.044409 785846 4949.056820
0.185000 0.185089 6532.345445 66.275351 1798.631885 34.665117 1283.281539 879528 4949.056820
0.195000 0.195093 6068.971662 78.946279 1774.253577 31.557228 706.022644 976596 4949.056820
0.205000 0.205084 5623.347152 63.994183 1314.475899 41.432060 564.163573 1077212 4949.056820
0.215000 0.215076 5159.195228 61.266618 1000.385940 14.013028 -33.274262 1186908 4949.056820
0.225000 0.225076 4926.908621 62.054640 837.437618 14.796764 12.127023 1299452 4949.056820
0.235000 0.235073 4479.550989 57.683009 711.388277 36.893701 215.308442 1417356 4949.056820
0.245000 0.245067 4260.335279 65.072989 685.751644 35.855110 177.145891 1539600 4949.056820
0.255000 0.255064 4032.213995 43.430643 554.364143 8.806194 469.874133 1669820 4949.056820
0.265000 0.265061 3744.019733 80.184980 561.266158 10.262248 309.814504 1801086 4949.056820
0.275000 0.275060 3516.007036 47.880050 315.325604 4.941292 341.187767 1942244 4949.056820
0.285000 0.285062 3305.388377 45.893650 145.577785 18.802684 252.445438 2084796 4949.056820
0.295000 0.295057 3216.574281 71.140210 72.494386 -0.715269 200.270051 2231868 4949.056820
