#Data file /home/DATA/sbrieden/Patchy_dr12_mocks/prerecon/original/Patchy-Mocks-DR12LOWZ-N-V5C-Portsmouth-mass_0095.dat
#Random file /home/DATA/sbrieden/Patchy_dr12_mocks/prerecon/original/Random-DR12LOWZ-N-V5C-x20.dat
#Number of data elements used: 234673
#Number of random elements used: 4685323
#Effective number of data elements weighted by wcol: 234673.000000
#Effective number of random elements weighted by wcol: 4685323.000000
#Effective number of data elements weighted by wcol*wsys: 234673.000000
#Effective number of random elements weighted by wcol*wsys: 4685323.000000
#Effective redshift value from data 0.330693
#Effective redshift value from randoms 0.330058
#Size of the Box 2500.000000 Mpc/h
#Area of the survey used 5826.000000 deg^2
#Value of alpha: 0.050172
#Normalization using data file
#Normalization using density
#Normalization 4.355403
#Shot noise factor 1.000000
#Shot noise value 3665.384821
#Type of Computation: FFT
#Number of grid cells: 512
#Type of Mass Assigment: TSC
#Type of Yamamoto: GridCenter
#Number of Interlacing steps: 2
#Grid Correction: yes
#Value of Om=0.310000
#Quadrupole as L2
#Octopole as L3
#Hexadecapole as L2L2
#k-centerbin	 k-eff	 Monopole-Pshotnoise	 Dipole	 Quadrupole	 Octopole	 Hexadecapole	 number of modes	 Pshotnoise
0.005000 0.007385 57381.618903 -948.181183 -13813.534256 -6846.245778 -16226.971987 250 3665.384821
0.015000 0.016012 81571.171776 -544.470462 8703.136220 -9975.812952 -12775.374402 1852 3665.384821
0.025000 0.025646 69648.471028 2708.172141 24511.207061 5067.515803 -18960.145185 5020 3665.384821
0.035000 0.035469 49887.199621 2586.074945 11285.676187 -1277.964070 -1545.889312 9756 3665.384821
0.045000 0.045368 39825.645360 652.632669 13525.130177 2632.960655 6072.395622 16108 3665.384821
0.055000 0.055314 35163.360505 766.014292 13782.656731 -466.359245 417.529029 24064 3665.384821
0.065000 0.065258 30499.048532 470.451333 8964.538047 1569.148992 -3047.689148 33396 3665.384821
0.075000 0.075209 26518.688297 822.409575 7487.591359 -151.151486 -1885.040399 44596 3665.384821
0.085000 0.085175 22128.113873 590.822578 9286.089890 193.292342 -2600.504825 57124 3665.384821
0.095000 0.095157 18143.496499 344.244258 6911.935674 1107.821904 1937.538848 71620 3665.384821
0.105000 0.105162 15920.615454 171.351093 5225.907339 212.721819 462.341644 87552 3665.384821
0.115000 0.115148 13885.745496 350.676398 3833.054965 38.450886 1080.854569 104524 3665.384821
0.125000 0.125146 12653.804449 118.167356 4155.543211 101.025275 -5.567570 124228 3665.384821
0.135000 0.135146 11499.866739 133.002724 3064.024958 392.920843 -1110.626896 144204 3665.384821
0.145000 0.145132 10549.419083 182.934071 2043.324206 -131.540021 -186.133759 166492 3665.384821
0.155000 0.155114 9354.963131 164.980497 2582.273130 176.828817 -159.415519 189964 3665.384821
0.165000 0.165102 8517.490719 79.214925 1731.933148 222.352655 549.483100 215640 3665.384821
0.175000 0.175105 7906.478808 114.993598 1580.585397 5.705331 199.801116 242836 3665.384821
0.185000 0.185097 7242.257911 131.408562 1786.389859 -36.130652 244.627144 270556 3665.384821
0.195000 0.195085 6641.056262 90.488976 1658.217727 47.390531 356.056846 301084 3665.384821
0.205000 0.205080 6157.371860 77.351692 1311.524348 117.201115 -54.794940 332628 3665.384821
0.215000 0.215092 5609.232488 70.084611 769.838172 84.840560 216.762140 367216 3665.384821
0.225000 0.225099 5135.297891 68.034936 636.745064 46.136546 197.892878 400444 3665.384821
0.235000 0.235081 4915.710651 81.651967 623.194569 -42.222349 110.276260 436500 3665.384821
0.245000 0.245077 4514.840858 75.289666 555.169322 84.886559 447.469849 475900 3665.384821
0.255000 0.255082 4255.017302 44.356617 431.857349 -32.313780 458.965679 514900 3665.384821
0.265000 0.265074 4084.239494 48.823798 428.038593 65.981870 334.082585 555408 3665.384821
0.275000 0.275066 3779.025213 58.921500 176.749190 13.303503 286.864880 598684 3665.384821
0.285000 0.285066 3516.534113 61.056720 265.125885 9.044559 162.258669 643228 3665.384821
0.295000 0.295058 3366.067783 33.098503 72.928520 7.126662 320.233055 688036 3665.384821
