#Data file /home/DATA/sbrieden/Patchy_dr12_mocks/prerecon/original/Patchy-Mocks-DR12LOWZ-S-V5C-Portsmouth-mass_0013.dat
#Random file /home/DATA/sbrieden/Patchy_dr12_mocks/prerecon/original/Random-DR12LOWZ-S-V5C-x20.dat
#Number of data elements used: 100549
#Number of random elements used: 2007904
#Effective number of data elements weighted by wcol: 100549.000000
#Effective number of random elements weighted by wcol: 2007904.000000
#Effective number of data elements weighted by wcol*wsys: 100549.000000
#Effective number of random elements weighted by wcol*wsys: 2007904.000000
#Effective redshift value from data 0.329873
#Effective redshift value from randoms 0.330155
#Size of the Box 2500.000000 Mpc/h
#Area of the survey used 2501.000000 deg^2
#Value of alpha: 0.050046
#Normalization using data file
#Normalization using density
#Normalization 1.863989
#Shot noise factor 1.000000
#Shot noise value 3650.216437
#Type of Computation: FFT
#Number of grid cells: 512
#Type of Mass Assigment: TSC
#Type of Yamamoto: GridCenter
#Number of Interlacing steps: 2
#Grid Correction: yes
#Value of Om=0.310000
#Quadrupole as L2
#Octopole as L3
#Hexadecapole as L2L2
#k-centerbin	 k-eff	 Monopole-Pshotnoise	 Dipole	 Quadrupole	 Octopole	 Hexadecapole	 number of modes	 Pshotnoise
0.005000 0.007385 92128.643639 -12347.825175 -37718.273727 -2386.645217 -16592.857275 250 3650.216437
0.015000 0.016012 75136.799443 4970.580190 20909.475950 -3355.450705 -723.835658 1852 3650.216437
0.025000 0.025646 49604.488255 896.322173 -6425.891268 2182.583886 -5177.445804 5020 3650.216437
0.035000 0.035469 45330.621398 1344.256477 1502.328588 -600.070032 -1006.930519 9756 3650.216437
0.045000 0.045368 37659.328700 729.830348 9702.158127 1607.492940 5194.884309 16108 3650.216437
0.055000 0.055314 35470.744228 684.508040 9531.665820 -122.361544 5199.311618 24064 3650.216437
0.065000 0.065258 30354.147202 692.789163 9402.270164 -159.862852 -537.646165 33396 3650.216437
0.075000 0.075209 25584.520701 501.423469 9618.824116 239.710956 -1489.661921 44596 3650.216437
0.085000 0.085175 21161.128332 733.938183 7877.128005 579.305148 -4747.321376 57124 3650.216437
0.095000 0.095157 17634.750443 283.062676 3935.386466 674.502818 -5.449058 71620 3650.216437
0.105000 0.105162 16224.756000 114.752311 4218.025583 177.572982 1378.955283 87552 3650.216437
0.115000 0.115148 14838.511459 293.792078 3619.335958 163.824609 770.086999 104524 3650.216437
0.125000 0.125146 12882.493628 191.343698 4362.439868 378.006008 1276.082169 124228 3650.216437
0.135000 0.135146 11639.602237 102.716454 2284.621114 79.230122 1242.984630 144204 3650.216437
0.145000 0.145132 10710.803169 280.352300 2704.342590 46.603022 886.174679 166492 3650.216437
0.155000 0.155114 9529.724765 40.872085 2120.275064 -15.634243 -785.934568 189964 3650.216437
0.165000 0.165102 8470.599910 216.497661 2703.333003 147.148467 750.101986 215640 3650.216437
0.175000 0.175105 7370.538695 128.538709 1926.462942 -20.322714 148.675672 242836 3650.216437
0.185000 0.185097 7095.119244 67.913003 1945.203370 209.288496 392.750563 270556 3650.216437
0.195000 0.195085 6436.994074 89.392620 1553.518559 29.065328 422.342333 301084 3650.216437
0.205000 0.205080 5920.863866 71.894207 796.657941 94.123369 -560.173524 332628 3650.216437
0.215000 0.215092 5550.931679 37.147955 852.362959 -14.965863 -78.415133 367216 3650.216437
0.225000 0.225099 5418.984364 90.697433 728.925281 93.063936 -131.022093 400444 3650.216437
0.235000 0.235081 4948.629017 84.584542 446.820558 -26.822635 -84.988408 436500 3650.216437
0.245000 0.245077 4573.526681 54.444939 715.751331 63.877299 367.236776 475900 3650.216437
0.255000 0.255082 4321.970616 67.421611 293.247089 18.764233 70.490108 514900 3650.216437
0.265000 0.265074 3930.990698 52.919195 -39.985792 66.442328 436.324025 555408 3650.216437
0.275000 0.275066 3720.807992 45.156445 88.962149 -50.588360 227.598607 598684 3650.216437
0.285000 0.285066 3492.128573 84.573079 538.044209 9.471024 663.740819 643228 3650.216437
0.295000 0.295058 3289.948463 23.640676 61.028303 38.941541 282.687472 688036 3650.216437
