#Data file /home/DATA/sbrieden/Patchy_dr12_mocks/prerecon/original/Patchy-Mocks-DR12LOWZ-N-V5C-Portsmouth-mass_0100.dat
#Random file /home/DATA/sbrieden/Patchy_dr12_mocks/prerecon/original/Random-DR12LOWZ-N-V5C-x20.dat
#Number of data elements used: 233879
#Number of random elements used: 4685323
#Effective number of data elements weighted by wcol: 233879.000000
#Effective number of random elements weighted by wcol: 4685323.000000
#Effective number of data elements weighted by wcol*wsys: 233879.000000
#Effective number of random elements weighted by wcol*wsys: 4685323.000000
#Effective redshift value from data 0.331064
#Effective redshift value from randoms 0.330058
#Size of the Box 2500.000000 Mpc/h
#Area of the survey used 5826.000000 deg^2
#Value of alpha: 0.050067
#Normalization using data file
#Normalization using density
#Normalization 4.344053
#Shot noise factor 1.000000
#Shot noise value 3672.194619
#Type of Computation: FFT
#Number of grid cells: 512
#Type of Mass Assigment: TSC
#Type of Yamamoto: GridCenter
#Number of Interlacing steps: 2
#Grid Correction: yes
#Value of Om=0.310000
#Quadrupole as L2
#Octopole as L3
#Hexadecapole as L2L2
#k-centerbin	 k-eff	 Monopole-Pshotnoise	 Dipole	 Quadrupole	 Octopole	 Hexadecapole	 number of modes	 Pshotnoise
0.005000 0.007385 77871.310914 -10678.649933 12738.220582 -13325.501427 -34624.151023 250 3672.194619
0.015000 0.016012 78083.621968 2157.928070 21508.581261 508.241083 -23536.820834 1852 3672.194619
0.025000 0.025646 61928.601683 2091.352947 8207.387002 3577.469717 337.803965 5020 3672.194619
0.035000 0.035469 50050.626511 2288.664805 20459.792414 -342.582445 -1501.654734 9756 3672.194619
0.045000 0.045368 41481.280268 953.923751 16415.803528 1399.118058 4116.732322 16108 3672.194619
0.055000 0.055314 35505.739104 712.729263 15709.178446 352.343298 -2094.870919 24064 3672.194619
0.065000 0.065258 28986.337583 1001.601412 12376.777874 -161.559566 -6563.833817 33396 3672.194619
0.075000 0.075209 25446.573504 121.866654 10070.682328 2749.351433 -218.619597 44596 3672.194619
0.085000 0.085175 22240.438833 701.096953 7167.785422 -710.669124 669.159423 57124 3672.194619
0.095000 0.095157 18682.458272 446.105641 7377.591454 531.845373 1374.395791 71620 3672.194619
0.105000 0.105162 16225.385913 207.674253 4559.023780 538.967298 -310.101679 87552 3672.194619
0.115000 0.115148 14403.202367 252.406637 4550.359205 -38.680846 56.383675 104524 3672.194619
0.125000 0.125146 12763.321713 116.264084 4067.277576 276.849511 -849.852529 124228 3672.194619
0.135000 0.135146 11774.071915 302.878393 3739.079405 176.552531 666.923582 144204 3672.194619
0.145000 0.145132 9902.850878 178.937297 2539.003577 105.443395 -25.418909 166492 3672.194619
0.155000 0.155114 9143.341881 106.177187 2791.378302 113.847243 656.819309 189964 3672.194619
0.165000 0.165102 8593.354818 69.597798 2394.627763 -13.485804 348.131694 215640 3672.194619
0.175000 0.175105 7928.604490 146.464338 2263.217065 145.483133 86.085772 242836 3672.194619
0.185000 0.185097 7204.201615 126.963572 2181.124728 -19.973437 520.754422 270556 3672.194619
0.195000 0.195085 6524.477770 72.584660 1568.790289 133.723239 -148.685316 301084 3672.194619
0.205000 0.205080 6059.836261 60.932169 1475.776255 93.507544 -134.539107 332628 3672.194619
0.215000 0.215092 5482.691044 79.147633 1054.506472 79.735354 264.550690 367216 3672.194619
0.225000 0.225099 5246.393012 51.306061 946.077235 7.205051 261.449120 400444 3672.194619
0.235000 0.235081 4916.927650 101.428668 897.347268 88.486216 425.748516 436500 3672.194619
0.245000 0.245077 4368.519510 59.476268 519.047170 -1.945264 112.846430 475900 3672.194619
0.255000 0.255082 4104.603772 49.681829 386.305282 71.753366 140.735518 514900 3672.194619
0.265000 0.265074 3877.322914 65.384252 271.715314 -49.695079 443.080143 555408 3672.194619
0.275000 0.275066 3664.944679 48.617594 122.713938 59.007582 139.031179 598684 3672.194619
0.285000 0.285066 3451.627607 41.655449 249.780485 3.165616 391.568296 643228 3672.194619
0.295000 0.295058 3310.655549 58.394065 -29.786086 -9.677083 199.001514 688036 3672.194619
