#Data file /home/DATA/sbrieden/Patchy_dr12_mocks/prerecon/original/Patchy-Mocks-DR12LOWZ-N-V5C-Portsmouth-mass_0019.dat
#Random file /home/DATA/sbrieden/Patchy_dr12_mocks/prerecon/original/Random-DR12LOWZ-N-V5C-x20.dat
#Number of data elements used: 233077
#Number of random elements used: 4685323
#Effective number of data elements weighted by wcol: 233077.000000
#Effective number of random elements weighted by wcol: 4685323.000000
#Effective number of data elements weighted by wcol*wsys: 233077.000000
#Effective number of random elements weighted by wcol*wsys: 4685323.000000
#Effective redshift value from data 0.330353
#Effective redshift value from randoms 0.330058
#Size of the Box 2500.000000 Mpc/h
#Area of the survey used 5826.000000 deg^2
#Value of alpha: 0.049801
#Normalization using data file
#Normalization using density
#Normalization 4.323749
#Shot noise factor 1.000000
#Shot noise value 3662.434936
#Type of Computation: FFT
#Number of grid cells: 512
#Type of Mass Assigment: TSC
#Type of Yamamoto: GridCenter
#Number of Interlacing steps: 2
#Grid Correction: yes
#Value of Om=0.310000
#Quadrupole as L2
#Octopole as L3
#Hexadecapole as L2L2
#k-centerbin	 k-eff	 Monopole-Pshotnoise	 Dipole	 Quadrupole	 Octopole	 Hexadecapole	 number of modes	 Pshotnoise
0.005000 0.007385 80915.404705 -4920.902433 219.723942 -39619.577380 -58554.746760 250 3662.434936
0.015000 0.016012 89244.411701 1432.276928 6878.120428 8490.058804 21026.781898 1852 3662.434936
0.025000 0.025646 62522.285906 2452.123156 17789.629858 136.488913 14734.557095 5020 3662.434936
0.035000 0.035469 51908.659121 2240.936302 19694.573674 1875.936134 6581.232640 9756 3662.434936
0.045000 0.045368 40748.298958 1159.615487 16687.657837 1706.845840 2031.430338 16108 3662.434936
0.055000 0.055314 33605.679057 725.599363 15327.929437 1669.263264 554.949222 24064 3662.434936
0.065000 0.065258 28525.832985 723.575455 6902.506408 -282.893343 -1843.098563 33396 3662.434936
0.075000 0.075209 25973.060677 242.453890 11098.884501 661.646150 -397.134269 44596 3662.434936
0.085000 0.085175 21538.436564 688.835065 6076.799078 1090.083082 473.843818 57124 3662.434936
0.095000 0.095157 18097.953252 327.558093 5451.298936 331.291870 616.589603 71620 3662.434936
0.105000 0.105162 15844.358647 316.135684 5086.928680 -22.438924 1515.612165 87552 3662.434936
0.115000 0.115148 14258.452766 221.587020 4996.348349 273.407591 263.865035 104524 3662.434936
0.125000 0.125146 12707.849559 221.646245 2398.665335 225.504605 -251.548572 124228 3662.434936
0.135000 0.135146 11328.700564 136.987789 2637.335842 19.364884 852.834286 144204 3662.434936
0.145000 0.145132 10544.855126 152.137463 2479.667775 206.323662 -558.350471 166492 3662.434936
0.155000 0.155114 9184.550896 178.260052 1991.123381 181.277623 1363.341997 189964 3662.434936
0.165000 0.165102 8374.199618 70.856558 1367.730671 -9.678713 159.807853 215640 3662.434936
0.175000 0.175105 7645.342378 179.166079 2122.642570 -46.360354 725.935278 242836 3662.434936
0.185000 0.185097 7053.694348 52.553129 1552.025427 255.583083 471.575522 270556 3662.434936
0.195000 0.195085 6488.377121 96.072920 1052.340637 -8.900681 543.445176 301084 3662.434936
0.205000 0.205080 6124.721798 75.954623 1222.967743 30.539196 416.295774 332628 3662.434936
0.215000 0.215092 5607.053424 68.975257 927.193014 36.496828 298.024934 367216 3662.434936
0.225000 0.225099 5322.351890 74.836334 766.104005 18.213912 179.764765 400444 3662.434936
0.235000 0.235081 4880.435295 63.730280 761.929603 26.005203 164.472002 436500 3662.434936
0.245000 0.245077 4666.881272 62.005374 708.120691 4.960160 107.201139 475900 3662.434936
0.255000 0.255082 4304.005122 59.059139 487.063882 57.721393 112.883441 514900 3662.434936
0.265000 0.265074 4039.254807 81.883288 212.508307 6.923659 87.168355 555408 3662.434936
0.275000 0.275066 3720.059240 40.760097 424.769427 30.525588 264.202539 598684 3662.434936
0.285000 0.285066 3486.925766 67.909219 189.476712 8.276155 245.210594 643228 3662.434936
0.295000 0.295058 3305.705221 49.282418 286.804113 -17.761103 71.903764 688036 3662.434936
