#Data file /home/DATA/sbrieden/Patchy_dr12_mocks/prerecon/original/Patchy-Mocks-DR12CMASS-N-V6C-Portsmouth-mass_0062.dat
#Random file /home/DATA/sbrieden/Patchy_dr12_mocks/prerecon/original/Random-DR12CMASS-N-V6C-x20.dat
#Number of data elements used: 584845
#Number of random elements used: 11797448
#Effective number of data elements weighted by wcol: 584845.000000
#Effective number of random elements weighted by wcol: 11797448.000000
#Effective number of data elements weighted by wcol*wsys: 584845.000000
#Effective number of random elements weighted by wcol*wsys: 11797448.000000
#Effective redshift value from data 0.597870
#Effective redshift value from randoms 0.597992
#Size of the Box 3700.000000 Mpc/h
#Area of the survey used 6851.000000 deg^2
#Value of alpha: 0.049600
#Normalization using data file
#Normalization using density
#Normalization 11.000189
#Shot noise factor 1.000000
#Shot noise value 4937.496039
#Type of Computation: FFT
#Number of grid cells: 512
#Type of Mass Assigment: TSC
#Type of Yamamoto: GridCenter
#Number of Interlacing steps: 2
#Grid Correction: yes
#Value of Om=0.310000
#Quadrupole as L2
#Octopole as L3
#Hexadecapole as L2L2
#k-centerbin	 k-eff	 Monopole-Pshotnoise	 Dipole	 Quadrupole	 Octopole	 Hexadecapole	 number of modes	 Pshotnoise
0.005000 0.007485 85483.668384 -826.903780 15104.442717 -1670.402644 -20952.647485 846 4937.496039
0.015000 0.016072 64559.985318 799.070547 11490.614646 -327.225359 -6713.957653 6012 4937.496039
0.025000 0.025646 59904.220443 1387.370350 13186.632555 -817.329328 -10487.030784 16172 4937.496039
0.035000 0.035469 48266.846419 952.829176 15787.252949 897.963538 -416.091579 31764 4937.496039
0.045000 0.045378 37879.908388 733.658967 13411.575769 625.051759 1125.524096 52164 4937.496039
0.055000 0.055280 31078.884879 540.278527 13140.256380 479.083370 1671.536265 77396 4937.496039
0.065000 0.065232 27550.492167 187.283126 12285.734109 737.079467 3241.209057 108936 4937.496039
0.075000 0.075229 24076.725724 424.945563 8958.410815 404.778646 -301.920341 144980 4937.496039
0.085000 0.085193 19597.649728 305.848382 6862.567914 170.580165 576.409580 184854 4937.496039
0.095000 0.095166 17029.912026 168.766023 6876.832688 418.157918 875.687515 232260 4937.496039
0.105000 0.105155 14640.092105 177.190190 5305.612652 58.379551 605.676565 282884 4937.496039
0.115000 0.115131 13298.627212 157.011436 4574.795725 131.233048 -60.049812 339084 4937.496039
0.125000 0.125124 11794.021661 88.929367 3640.792456 173.674984 332.680611 401864 4937.496039
0.135000 0.135125 10951.637782 143.893240 3246.715733 34.774225 -139.763956 468084 4937.496039
0.145000 0.145120 9580.426508 112.341838 3014.727920 116.037754 -77.279915 539940 4937.496039
0.155000 0.155118 8471.002739 109.126563 2784.354941 41.251058 273.944920 617324 4937.496039
0.165000 0.165105 7864.049614 78.713812 2250.344374 107.076807 442.727971 697452 4937.496039
0.175000 0.175088 7208.084299 92.550751 1899.323476 -0.958589 -96.454850 785846 4937.496039
0.185000 0.185089 6646.993972 75.388951 1843.187195 20.550893 156.983607 879528 4937.496039
0.195000 0.195093 6223.007046 49.993762 1424.808957 108.382290 255.646146 976596 4937.496039
0.205000 0.205084 5692.449506 80.650571 1256.577286 -8.109805 280.472555 1077212 4937.496039
0.215000 0.215076 5322.692325 61.045621 1163.200287 67.126528 20.427717 1186908 4937.496039
0.225000 0.225076 4884.321122 66.043448 878.462930 14.259142 363.012899 1299452 4937.496039
0.235000 0.235073 4597.876337 57.560742 729.260075 13.797882 -5.625671 1417356 4937.496039
0.245000 0.245067 4298.988942 61.612389 581.654781 18.339211 240.268767 1539600 4937.496039
0.255000 0.255064 3994.574300 60.200654 458.388309 30.718230 363.503134 1669820 4937.496039
0.265000 0.265061 3806.150179 49.410853 445.565097 11.451108 377.253813 1801086 4937.496039
0.275000 0.275060 3571.186511 59.622950 347.999007 5.248997 71.242468 1942244 4937.496039
0.285000 0.285062 3360.340558 55.425175 173.525885 9.017652 113.897345 2084796 4937.496039
0.295000 0.295057 3201.312082 61.639912 105.255168 12.147393 134.249725 2231868 4937.496039
