#Data file /home/DATA/sbrieden/Patchy_dr12_mocks/prerecon/original/Patchy-Mocks-DR12CMASS-N-V6C-Portsmouth-mass_0004.dat
#Random file /home/DATA/sbrieden/Patchy_dr12_mocks/prerecon/original/Random-DR12CMASS-N-V6C-x20.dat
#Number of data elements used: 590084
#Number of random elements used: 11797448
#Effective number of data elements weighted by wcol: 590084.000000
#Effective number of random elements weighted by wcol: 11797448.000000
#Effective number of data elements weighted by wcol*wsys: 590084.000000
#Effective number of random elements weighted by wcol*wsys: 11797448.000000
#Effective redshift value from data 0.598094
#Effective redshift value from randoms 0.597992
#Size of the Box 3700.000000 Mpc/h
#Area of the survey used 6851.000000 deg^2
#Value of alpha: 0.050075
#Normalization using data file
#Normalization using density
#Normalization 11.104124
#Shot noise factor 1.000000
#Shot noise value 4941.657926
#Type of Computation: FFT
#Number of grid cells: 512
#Type of Mass Assigment: TSC
#Type of Yamamoto: GridCenter
#Number of Interlacing steps: 2
#Grid Correction: yes
#Value of Om=0.310000
#Quadrupole as L2
#Octopole as L3
#Hexadecapole as L2L2
#k-centerbin	 k-eff	 Monopole-Pshotnoise	 Dipole	 Quadrupole	 Octopole	 Hexadecapole	 number of modes	 Pshotnoise
0.005000 0.007485 61380.774041 760.150300 3290.573721 -10522.696519 -18202.003796 846 4941.657926
0.015000 0.016072 68311.351151 874.961625 31943.581618 3476.562962 -8709.338723 6012 4941.657926
0.025000 0.025646 63308.218226 1271.139068 25006.330360 1684.899498 -2157.627142 16172 4941.657926
0.035000 0.035469 45953.689171 1493.404763 23106.525638 2143.354427 10175.123485 31764 4941.657926
0.045000 0.045378 37429.168634 454.952365 16200.590659 1364.296268 7898.419540 52164 4941.657926
0.055000 0.055280 31988.988306 292.391535 14979.058162 866.090964 5491.512990 77396 4941.657926
0.065000 0.065232 27875.667434 403.997049 10323.922643 469.056107 1935.001837 108936 4941.657926
0.075000 0.075229 23872.040133 294.312974 7941.466060 528.522727 443.793044 144980 4941.657926
0.085000 0.085193 20357.433217 262.484475 7344.511273 26.675037 330.965802 184854 4941.657926
0.095000 0.095166 17475.090862 296.830596 6543.843625 215.548426 643.705944 232260 4941.657926
0.105000 0.105155 14372.632583 200.316437 4571.494769 111.371491 -230.927138 282884 4941.657926
0.115000 0.115131 13293.098405 156.746115 5100.883874 140.835284 -440.529093 339084 4941.657926
0.125000 0.125124 11846.526022 88.859317 3776.060144 177.518814 78.502775 401864 4941.657926
0.135000 0.135125 10803.000387 119.650220 3531.094639 74.914333 158.128404 468084 4941.657926
0.145000 0.145120 9694.659507 103.739432 3083.257171 118.730947 216.178361 539940 4941.657926
0.155000 0.155118 8516.977464 119.596154 2855.467286 65.447172 819.091202 617324 4941.657926
0.165000 0.165105 7745.426774 72.582107 2356.916869 65.555442 906.962803 697452 4941.657926
0.175000 0.175088 7075.208282 94.811072 2069.812378 33.729954 614.349973 785846 4941.657926
0.185000 0.185089 6630.420797 73.754684 1805.391669 54.832739 359.823749 879528 4941.657926
0.195000 0.195093 6078.672246 57.314124 1451.498685 52.988504 444.536299 976596 4941.657926
0.205000 0.205084 5619.692223 65.375034 1282.344064 47.735286 172.422843 1077212 4941.657926
0.215000 0.215076 5283.963684 75.191848 1137.699901 19.588433 400.912531 1186908 4941.657926
0.225000 0.225076 4861.724305 59.954464 870.675173 24.553117 535.800781 1299452 4941.657926
0.235000 0.235073 4557.794234 64.135155 829.101296 -3.757164 257.895499 1417356 4941.657926
0.245000 0.245067 4321.293365 57.599909 743.845193 46.921541 123.893021 1539600 4941.657926
0.255000 0.255064 3980.827397 54.478088 573.256255 17.544159 159.273980 1669820 4941.657926
0.265000 0.265061 3765.264617 56.844238 428.706255 10.652053 99.069596 1801086 4941.657926
0.275000 0.275060 3519.180942 61.989318 361.554256 5.918777 272.801419 1942244 4941.657926
0.285000 0.285062 3341.315520 54.520218 290.986697 12.041579 430.214430 2084796 4941.657926
0.295000 0.295057 3184.459106 51.835499 309.907480 12.031256 234.381476 2231868 4941.657926
