#Data file /home/DATA/sbrieden/Patchy_dr12_mocks/prerecon/original/Patchy-Mocks-DR12LOWZ-S-V5C-Portsmouth-mass_0024.dat
#Random file /home/DATA/sbrieden/Patchy_dr12_mocks/prerecon/original/Random-DR12LOWZ-S-V5C-x20.dat
#Number of data elements used: 100522
#Number of random elements used: 2007904
#Effective number of data elements weighted by wcol: 100522.000000
#Effective number of random elements weighted by wcol: 2007904.000000
#Effective number of data elements weighted by wcol*wsys: 100522.000000
#Effective number of random elements weighted by wcol*wsys: 2007904.000000
#Effective redshift value from data 0.329280
#Effective redshift value from randoms 0.330155
#Size of the Box 2500.000000 Mpc/h
#Area of the survey used 2501.000000 deg^2
#Value of alpha: 0.049941
#Normalization using data file
#Normalization using density
#Normalization 1.860909
#Shot noise factor 1.000000
#Shot noise value 3643.584140
#Type of Computation: FFT
#Number of grid cells: 512
#Type of Mass Assigment: TSC
#Type of Yamamoto: GridCenter
#Number of Interlacing steps: 2
#Grid Correction: yes
#Value of Om=0.310000
#Quadrupole as L2
#Octopole as L3
#Hexadecapole as L2L2
#k-centerbin	 k-eff	 Monopole-Pshotnoise	 Dipole	 Quadrupole	 Octopole	 Hexadecapole	 number of modes	 Pshotnoise
0.005000 0.007385 66053.181118 -2050.646924 10005.639510 -25050.277083 -62821.793100 250 3643.584140
0.015000 0.016012 68621.713077 -1521.765043 25045.240762 -7214.777451 -44130.314915 1852 3643.584140
0.025000 0.025646 75621.755146 1379.397324 10101.842370 2958.751073 -37845.721973 5020 3643.584140
0.035000 0.035469 56060.498638 3406.861639 9206.590000 -969.134574 700.173612 9756 3643.584140
0.045000 0.045368 42060.508184 1348.771649 11263.534500 3543.282122 -230.885461 16108 3643.584140
0.055000 0.055314 30044.194226 1088.737383 14934.961444 -684.466793 11425.161200 24064 3643.584140
0.065000 0.065258 27570.865941 152.733278 14414.333804 2598.025869 2429.722222 33396 3643.584140
0.075000 0.075209 25329.282901 430.162607 7493.451915 -444.168151 -3198.842679 44596 3643.584140
0.085000 0.085175 22328.281966 585.502058 7934.277032 1213.997916 1508.613461 57124 3643.584140
0.095000 0.095157 17491.828613 389.247266 3992.337031 472.885312 1102.119850 71620 3643.584140
0.105000 0.105162 15065.614680 207.662965 2834.078683 89.971594 2547.424300 87552 3643.584140
0.115000 0.115148 14145.790598 210.964201 3686.361170 68.606993 -1043.750913 104524 3643.584140
0.125000 0.125146 12696.180697 128.255951 3214.671184 253.612311 1309.938569 124228 3643.584140
0.135000 0.135146 11796.631357 269.036498 2730.323353 -66.075660 -422.848667 144204 3643.584140
0.145000 0.145132 10085.805032 168.276898 3023.327500 191.706846 814.899003 166492 3643.584140
0.155000 0.155114 9186.596392 102.974433 2327.596998 125.262895 1282.608000 189964 3643.584140
0.165000 0.165102 8926.460318 110.185741 2626.126624 89.321726 1153.171722 215640 3643.584140
0.175000 0.175105 7966.541744 80.230372 1092.939523 254.089280 317.073524 242836 3643.584140
0.185000 0.185097 7273.383258 139.772342 1565.650992 -255.334311 -24.230684 270556 3643.584140
0.195000 0.195085 6654.868358 103.411006 1583.421339 166.893420 -75.930708 301084 3643.584140
0.205000 0.205080 6060.308722 97.237674 1283.996102 25.292866 -315.075339 332628 3643.584140
0.215000 0.215092 5511.503212 87.501324 690.673694 -9.206553 -569.620256 367216 3643.584140
0.225000 0.225099 5086.056226 25.292500 402.243994 125.586994 -115.788751 400444 3643.584140
0.235000 0.235081 4905.684205 88.848046 737.645282 -51.625068 169.455180 436500 3643.584140
0.245000 0.245077 4673.164895 45.388096 620.648918 24.588644 -82.904098 475900 3643.584140
0.255000 0.255082 4274.847653 83.607152 355.076422 75.968979 -120.534868 514900 3643.584140
0.265000 0.265074 4052.392977 35.178702 378.233048 -20.282638 250.280457 555408 3643.584140
0.275000 0.275066 3855.333700 51.729320 508.743785 82.501484 273.300047 598684 3643.584140
0.285000 0.285066 3570.209932 74.575076 -15.976183 -11.033467 261.289246 643228 3643.584140
0.295000 0.295058 3309.359704 45.467586 134.199491 10.724230 172.697180 688036 3643.584140
