#Data file /home/DATA/sbrieden/Patchy_dr12_mocks/prerecon/original/Patchy-Mocks-DR12LOWZ-N-V5C-Portsmouth-mass_0067.dat
#Random file /home/DATA/sbrieden/Patchy_dr12_mocks/prerecon/original/Random-DR12LOWZ-N-V5C-x20.dat
#Number of data elements used: 232587
#Number of random elements used: 4685323
#Effective number of data elements weighted by wcol: 232587.000000
#Effective number of random elements weighted by wcol: 4685323.000000
#Effective number of data elements weighted by wcol*wsys: 232587.000000
#Effective number of random elements weighted by wcol*wsys: 4685323.000000
#Effective redshift value from data 0.330088
#Effective redshift value from randoms 0.330058
#Size of the Box 2500.000000 Mpc/h
#Area of the survey used 5826.000000 deg^2
#Value of alpha: 0.049591
#Normalization using data file
#Normalization using density
#Normalization 4.308929
#Shot noise factor 1.000000
#Shot noise value 3651.015261
#Type of Computation: FFT
#Number of grid cells: 512
#Type of Mass Assigment: TSC
#Type of Yamamoto: GridCenter
#Number of Interlacing steps: 2
#Grid Correction: yes
#Value of Om=0.310000
#Quadrupole as L2
#Octopole as L3
#Hexadecapole as L2L2
#k-centerbin	 k-eff	 Monopole-Pshotnoise	 Dipole	 Quadrupole	 Octopole	 Hexadecapole	 number of modes	 Pshotnoise
0.005000 0.007385 47855.275730 -13800.945089 20225.115351 -14493.569480 -25456.985476 250 3651.015261
0.015000 0.016012 70456.899932 -528.167450 29627.795422 10686.168119 -3214.978644 1852 3651.015261
0.025000 0.025646 64278.339654 3046.013128 23566.972774 -4189.760416 -30539.980735 5020 3651.015261
0.035000 0.035469 50220.122370 1565.446516 21343.105446 3557.888104 -2034.946332 9756 3651.015261
0.045000 0.045368 42363.312489 1364.130590 18104.072553 1868.276358 -2637.511168 16108 3651.015261
0.055000 0.055314 34128.007830 555.455195 11289.012546 897.850888 -2914.147538 24064 3651.015261
0.065000 0.065258 31297.878826 720.752724 12925.033555 428.503042 -424.376238 33396 3651.015261
0.075000 0.075209 25351.227169 623.001925 10409.760987 1310.882496 2561.070601 44596 3651.015261
0.085000 0.085175 21649.019793 618.995294 7966.923956 439.576999 2147.550525 57124 3651.015261
0.095000 0.095157 17830.609169 397.417021 6057.599692 437.425426 -580.305826 71620 3651.015261
0.105000 0.105162 15625.433391 293.829196 4842.378824 359.985364 521.139714 87552 3651.015261
0.115000 0.115148 14000.575972 180.969109 4584.322758 176.267871 74.897377 104524 3651.015261
0.125000 0.125146 12358.979706 184.225416 2841.197821 181.178585 237.441954 124228 3651.015261
0.135000 0.135146 11041.379529 174.420213 3103.857679 59.386913 -224.651316 144204 3651.015261
0.145000 0.145132 10191.477420 180.114390 2495.492975 25.262990 372.018212 166492 3651.015261
0.155000 0.155114 9011.379677 154.661894 2357.724586 116.570546 259.243981 189964 3651.015261
0.165000 0.165102 8118.783770 69.287310 2129.590618 180.990623 196.151818 215640 3651.015261
0.175000 0.175105 7650.566656 119.352123 1705.907150 78.388908 358.398605 242836 3651.015261
0.185000 0.185097 7069.089913 106.531710 1619.390301 67.681883 466.651503 270556 3651.015261
0.195000 0.195085 6415.954627 77.536078 1089.512151 39.735428 263.235558 301084 3651.015261
0.205000 0.205080 5935.956338 92.496975 949.056443 16.626804 -65.812927 332628 3651.015261
0.215000 0.215092 5490.901025 67.194526 768.053524 72.508038 -116.396406 367216 3651.015261
0.225000 0.225099 4990.883434 94.260692 664.776414 31.417400 577.738156 400444 3651.015261
0.235000 0.235081 4773.050348 39.193042 820.703454 10.938654 249.754715 436500 3651.015261
0.245000 0.245077 4362.129764 58.741384 430.115812 108.380755 208.125224 475900 3651.015261
0.255000 0.255082 4117.284995 70.972538 309.882698 -61.227116 60.291307 514900 3651.015261
0.265000 0.265074 3901.961044 52.720136 396.526305 7.206869 200.690669 555408 3651.015261
0.275000 0.275066 3694.860720 51.325733 308.790344 14.221875 -31.309846 598684 3651.015261
0.285000 0.285066 3447.009035 59.802871 171.851601 33.004257 42.372648 643228 3651.015261
0.295000 0.295058 3262.014748 38.152133 -55.158040 67.247165 224.565507 688036 3651.015261
