#Data file /home/DATA/sbrieden/Patchy_dr12_mocks/prerecon/original/Patchy-Mocks-DR12LOWZ-S-V5C-Portsmouth-mass_0016.dat
#Random file /home/DATA/sbrieden/Patchy_dr12_mocks/prerecon/original/Random-DR12LOWZ-S-V5C-x20.dat
#Number of data elements used: 101712
#Number of random elements used: 2007904
#Effective number of data elements weighted by wcol: 101712.000000
#Effective number of random elements weighted by wcol: 2007904.000000
#Effective number of data elements weighted by wcol*wsys: 101712.000000
#Effective number of random elements weighted by wcol*wsys: 2007904.000000
#Effective redshift value from data 0.330181
#Effective redshift value from randoms 0.330155
#Size of the Box 2500.000000 Mpc/h
#Area of the survey used 2501.000000 deg^2
#Value of alpha: 0.050734
#Normalization using data file
#Normalization using density
#Normalization 1.887635
#Shot noise factor 1.000000
#Shot noise value 3666.743003
#Type of Computation: FFT
#Number of grid cells: 512
#Type of Mass Assigment: TSC
#Type of Yamamoto: GridCenter
#Number of Interlacing steps: 2
#Grid Correction: yes
#Value of Om=0.310000
#Quadrupole as L2
#Octopole as L3
#Hexadecapole as L2L2
#k-centerbin	 k-eff	 Monopole-Pshotnoise	 Dipole	 Quadrupole	 Octopole	 Hexadecapole	 number of modes	 Pshotnoise
0.005000 0.007385 10189.800470 -3266.056754 14390.550412 860.143430 3511.452257 250 3666.743003
0.015000 0.016012 69856.337768 -3944.331612 7791.819910 -9457.664035 -55112.573906 1852 3666.743003
0.025000 0.025646 58976.831635 2959.237685 11671.465677 -3685.325861 -34732.581963 5020 3666.743003
0.035000 0.035469 44795.970659 418.228188 1339.334962 906.340604 -15408.506489 9756 3666.743003
0.045000 0.045368 41142.664504 1310.764999 9834.577857 -1897.565062 -13038.605990 16108 3666.743003
0.055000 0.055314 34241.289553 741.813448 14661.312356 534.678578 -5051.701563 24064 3666.743003
0.065000 0.065258 31236.652657 766.079097 12875.242773 1713.367824 -34.994039 33396 3666.743003
0.075000 0.075209 25506.887355 497.615520 7742.834889 1278.999140 4650.772544 44596 3666.743003
0.085000 0.085175 21724.299788 600.038030 6346.990076 442.475996 5488.553075 57124 3666.743003
0.095000 0.095157 17828.667647 413.444104 5709.416901 421.092031 3504.647245 71620 3666.743003
0.105000 0.105162 15844.377646 159.748807 4893.708337 210.515260 1328.410180 87552 3666.743003
0.115000 0.115148 14465.546901 321.615161 4561.106777 -77.991486 196.918825 104524 3666.743003
0.125000 0.125146 12528.017271 182.675444 3336.149214 211.730236 -873.806036 124228 3666.743003
0.135000 0.135146 11386.280653 137.947509 3571.169693 75.030702 313.538427 144204 3666.743003
0.145000 0.145132 10748.055469 121.957788 2615.138208 198.742294 -434.582040 166492 3666.743003
0.155000 0.155114 9127.648716 232.961918 2554.939511 273.074923 991.979178 189964 3666.743003
0.165000 0.165102 8238.388560 98.023751 2250.210397 3.398732 858.503278 215640 3666.743003
0.175000 0.175105 7931.323968 117.434826 2216.145733 -76.081936 974.472980 242836 3666.743003
0.185000 0.185097 6951.610250 114.236333 2040.192567 292.679197 1024.593983 270556 3666.743003
0.195000 0.195085 6759.239656 34.615973 1247.390775 32.379617 996.558654 301084 3666.743003
0.205000 0.205080 6259.689836 93.150297 1286.408998 1.856823 333.033124 332628 3666.743003
0.215000 0.215092 5788.893009 111.113767 1032.386429 27.129715 183.972988 367216 3666.743003
0.225000 0.225099 5144.754451 61.193150 1264.465622 54.206056 507.918866 400444 3666.743003
0.235000 0.235081 4849.656107 64.299815 854.058666 3.769688 37.434269 436500 3666.743003
0.245000 0.245077 4664.938909 31.153282 566.516817 121.488641 63.727151 475900 3666.743003
0.255000 0.255082 4270.317620 91.742362 492.341924 -52.709436 317.279786 514900 3666.743003
0.265000 0.265074 4013.475408 53.213428 587.939556 25.369103 433.041384 555408 3666.743003
0.275000 0.275066 3798.322035 68.212331 607.432756 -4.701471 -105.932784 598684 3666.743003
0.285000 0.285066 3551.311516 43.190841 549.373915 24.400481 229.195113 643228 3666.743003
0.295000 0.295058 3263.442701 57.658497 162.847180 76.764847 48.638922 688036 3666.743003
