#Data file /home/DATA/sbrieden/Patchy_dr12_mocks/prerecon/original/Patchy-Mocks-DR12LOWZ-N-V5C-Portsmouth-mass_0040.dat
#Random file /home/DATA/sbrieden/Patchy_dr12_mocks/prerecon/original/Random-DR12LOWZ-N-V5C-x20.dat
#Number of data elements used: 236244
#Number of random elements used: 4685323
#Effective number of data elements weighted by wcol: 236244.000000
#Effective number of random elements weighted by wcol: 4685323.000000
#Effective number of data elements weighted by wcol*wsys: 236244.000000
#Effective number of random elements weighted by wcol*wsys: 4685323.000000
#Effective redshift value from data 0.330292
#Effective redshift value from randoms 0.330058
#Size of the Box 2500.000000 Mpc/h
#Area of the survey used 5826.000000 deg^2
#Value of alpha: 0.050470
#Normalization using data file
#Normalization using density
#Normalization 4.382567
#Shot noise factor 1.000000
#Shot noise value 3662.635328
#Type of Computation: FFT
#Number of grid cells: 512
#Type of Mass Assigment: TSC
#Type of Yamamoto: GridCenter
#Number of Interlacing steps: 2
#Grid Correction: yes
#Value of Om=0.310000
#Quadrupole as L2
#Octopole as L3
#Hexadecapole as L2L2
#k-centerbin	 k-eff	 Monopole-Pshotnoise	 Dipole	 Quadrupole	 Octopole	 Hexadecapole	 number of modes	 Pshotnoise
0.005000 0.007385 29423.091046 -11421.150540 -14272.415197 9499.024657 25304.540654 250 3662.635328
0.015000 0.016012 67082.839468 -1463.208685 9084.952191 -8201.732101 -4089.465251 1852 3662.635328
0.025000 0.025646 59675.545244 2864.439341 19644.483347 3661.895456 5351.915139 5020 3662.635328
0.035000 0.035469 47419.569189 555.755131 20737.175013 408.200183 -8077.793470 9756 3662.635328
0.045000 0.045368 39035.250856 1832.239724 19840.087337 2527.870692 -4684.894151 16108 3662.635328
0.055000 0.055314 33302.885368 369.596944 10734.464528 579.025340 -4626.432684 24064 3662.635328
0.065000 0.065258 30232.111107 559.935760 8443.759540 898.616595 3333.053504 33396 3662.635328
0.075000 0.075209 25275.225270 788.764733 10049.714990 864.742250 3950.238875 44596 3662.635328
0.085000 0.085175 22064.926225 404.077115 9251.086770 405.497537 400.492389 57124 3662.635328
0.095000 0.095157 18196.200377 376.343230 7210.119175 410.630090 792.904451 71620 3662.635328
0.105000 0.105162 15842.054792 344.050285 5222.488352 452.063913 223.024822 87552 3662.635328
0.115000 0.115148 13605.763065 194.735513 4968.792245 113.928624 847.184174 104524 3662.635328
0.125000 0.125146 12714.189203 129.017337 3765.450310 137.231229 200.602346 124228 3662.635328
0.135000 0.135146 11568.251011 210.974237 3621.217288 157.017814 -643.481040 144204 3662.635328
0.145000 0.145132 10248.729328 163.302567 3370.936777 125.100717 712.671943 166492 3662.635328
0.155000 0.155114 9152.807285 195.302975 2187.447929 118.072279 37.808689 189964 3662.635328
0.165000 0.165102 8608.273588 89.714749 3018.803082 -65.624921 43.216928 215640 3662.635328
0.175000 0.175105 7734.022825 109.065868 2005.959088 246.114184 224.408157 242836 3662.635328
0.185000 0.185097 7038.122082 93.209489 2146.081177 54.356587 521.979449 270556 3662.635328
0.195000 0.195085 6619.429279 55.477754 1562.927098 185.124669 511.705554 301084 3662.635328
0.205000 0.205080 6096.844083 105.071746 1365.753731 -67.951524 36.183067 332628 3662.635328
0.215000 0.215092 5593.759850 62.424912 1372.282179 123.667687 403.319871 367216 3662.635328
0.225000 0.225099 5179.895040 94.722812 982.140273 74.481488 493.993727 400444 3662.635328
0.235000 0.235081 4786.856895 61.084412 600.127603 7.261786 213.759774 436500 3662.635328
0.245000 0.245077 4581.140002 51.000940 460.440169 29.613955 439.617817 475900 3662.635328
0.255000 0.255082 4254.373422 64.325520 471.577539 12.704255 198.269147 514900 3662.635328
0.265000 0.265074 4007.188670 60.600308 259.023721 32.530730 262.246021 555408 3662.635328
0.275000 0.275066 3679.976930 63.817871 283.430635 -0.762290 103.845392 598684 3662.635328
0.285000 0.285066 3444.367480 44.197684 328.442030 -5.852160 104.066475 643228 3662.635328
0.295000 0.295058 3247.134040 49.746649 293.624439 1.358677 -57.063935 688036 3662.635328
