#Data file /home/DATA/sbrieden/Patchy_dr12_mocks/prerecon/original/Patchy-Mocks-DR12CMASS-S-V6C-Portsmouth-mass_0063.dat
#Random file /home/DATA/sbrieden/Patchy_dr12_mocks/prerecon/original/Random-DR12CMASS-S-V6C-x20.dat
#Number of data elements used: 215410
#Number of random elements used: 4288842
#Effective number of data elements weighted by wcol: 215410.000000
#Effective number of random elements weighted by wcol: 4288842.000000
#Effective number of data elements weighted by wcol*wsys: 215410.000000
#Effective number of random elements weighted by wcol*wsys: 4288842.000000
#Effective redshift value from data 0.597836
#Effective redshift value from randoms 0.597190
#Size of the Box 3700.000000 Mpc/h
#Area of the survey used 2525.000000 deg^2
#Value of alpha: 0.050387
#Normalization using data file
#Normalization using density
#Normalization 4.097910
#Shot noise factor 1.000000
#Shot noise value 4953.089352
#Type of Computation: FFT
#Number of grid cells: 512
#Type of Mass Assigment: TSC
#Type of Yamamoto: GridCenter
#Number of Interlacing steps: 2
#Grid Correction: yes
#Value of Om=0.310000
#Quadrupole as L2
#Octopole as L3
#Hexadecapole as L2L2
#k-centerbin	 k-eff	 Monopole-Pshotnoise	 Dipole	 Quadrupole	 Octopole	 Hexadecapole	 number of modes	 Pshotnoise
0.005000 0.007485 34251.789328 875.946051 24365.457192 2896.084030 5568.079929 846 4953.089352
0.015000 0.016072 61334.506615 998.537523 13202.096385 -23.041366 13302.580415 6012 4953.089352
0.025000 0.025646 64202.133623 1141.640194 30218.323248 -1265.809438 -2031.539530 16172 4953.089352
0.035000 0.035469 46346.981272 1025.004709 28369.430421 3524.130002 -5839.244741 31764 4953.089352
0.045000 0.045378 37980.221688 575.669084 10790.416093 540.609845 -4806.937797 52164 4953.089352
0.055000 0.055280 31363.052401 422.774505 14783.506178 503.959811 -3189.837720 77396 4953.089352
0.065000 0.065232 28284.497234 353.352235 11665.861424 784.308594 526.274708 108936 4953.089352
0.075000 0.075229 22423.617908 340.064671 8179.150114 471.882758 536.599375 144980 4953.089352
0.085000 0.085193 19319.912557 287.879868 5180.891260 182.880640 1717.050801 184854 4953.089352
0.095000 0.095166 16384.517818 251.468325 5965.197584 -81.796609 -1587.545913 232260 4953.089352
0.105000 0.105155 14375.269208 118.238364 6453.083460 384.833220 694.888851 282884 4953.089352
0.115000 0.115131 12938.576724 151.580159 4776.429264 95.765648 773.239280 339084 4953.089352
0.125000 0.125124 11877.030544 76.999720 3431.731680 103.487721 -377.416575 401864 4953.089352
0.135000 0.135125 10619.180538 136.447470 3305.002650 124.870449 -304.449081 468084 4953.089352
0.145000 0.145120 9624.325278 124.575222 3299.696425 28.528803 596.082329 539940 4953.089352
0.155000 0.155118 8600.417797 108.000664 2017.285803 142.350086 915.062116 617324 4953.089352
0.165000 0.165105 7787.017716 75.728994 2164.326812 27.895764 800.001366 697452 4953.089352
0.175000 0.175088 7207.925500 81.362267 1620.085147 -9.105418 393.441846 785846 4953.089352
0.185000 0.185089 6797.601159 73.286583 2027.330604 13.426487 -604.207984 879528 4953.089352
0.195000 0.195093 6218.706246 95.380547 1611.011727 26.368601 -211.520261 976596 4953.089352
0.205000 0.205084 5644.802994 49.418851 1483.820460 111.057493 94.796199 1077212 4953.089352
0.215000 0.215076 5234.680998 74.201993 1148.988010 7.136817 384.149584 1186908 4953.089352
0.225000 0.225076 4943.598255 51.237033 866.777428 44.826969 280.013453 1299452 4953.089352
0.235000 0.235073 4702.378243 68.377165 817.696304 28.234304 584.294020 1417356 4953.089352
0.245000 0.245067 4244.503256 52.130686 796.971597 10.900068 431.348261 1539600 4953.089352
0.255000 0.255064 4017.795563 72.760472 443.786201 9.302186 168.273775 1669820 4953.089352
0.265000 0.265061 3657.937191 47.086729 450.485149 21.433564 -0.028117 1801086 4953.089352
0.275000 0.275060 3552.685656 41.948819 242.053459 22.907763 1.090606 1942244 4953.089352
0.285000 0.285062 3489.948243 68.731866 81.092497 10.451270 -7.125074 2084796 4953.089352
0.295000 0.295057 3182.800543 46.584586 65.039159 3.196153 69.982980 2231868 4953.089352
