#Data file /home/DATA/sbrieden/Patchy_dr12_mocks/prerecon/original/Patchy-Mocks-DR12LOWZ-S-V5C-Portsmouth-mass_0011.dat
#Random file /home/DATA/sbrieden/Patchy_dr12_mocks/prerecon/original/Random-DR12LOWZ-S-V5C-x20.dat
#Number of data elements used: 99088
#Number of random elements used: 2007904
#Effective number of data elements weighted by wcol: 99088.000000
#Effective number of random elements weighted by wcol: 2007904.000000
#Effective number of data elements weighted by wcol*wsys: 99088.000000
#Effective number of random elements weighted by wcol*wsys: 2007904.000000
#Effective redshift value from data 0.331204
#Effective redshift value from randoms 0.330155
#Size of the Box 2500.000000 Mpc/h
#Area of the survey used 2501.000000 deg^2
#Value of alpha: 0.049366
#Normalization using data file
#Normalization using density
#Normalization 1.837368
#Shot noise factor 1.000000
#Shot noise value 3657.477549
#Type of Computation: FFT
#Number of grid cells: 512
#Type of Mass Assigment: TSC
#Type of Yamamoto: GridCenter
#Number of Interlacing steps: 2
#Grid Correction: yes
#Value of Om=0.310000
#Quadrupole as L2
#Octopole as L3
#Hexadecapole as L2L2
#k-centerbin	 k-eff	 Monopole-Pshotnoise	 Dipole	 Quadrupole	 Octopole	 Hexadecapole	 number of modes	 Pshotnoise
0.005000 0.007385 68278.669805 -4954.888431 67611.391042 15121.587034 -36349.600539 250 3657.477549
0.015000 0.016012 88801.668787 1547.458683 57198.593203 27208.214821 18024.997007 1852 3657.477549
0.025000 0.025646 62818.424243 3737.851269 -3318.410546 -1693.236847 20054.492858 5020 3657.477549
0.035000 0.035469 54091.457236 2126.364065 12177.115051 178.587487 -12257.794641 9756 3657.477549
0.045000 0.045368 40849.389427 678.078921 16727.222362 2459.198898 -11003.747174 16108 3657.477549
0.055000 0.055314 33489.331826 667.632220 8955.728462 -35.220543 -1588.408070 24064 3657.477549
0.065000 0.065258 30067.391534 878.896542 11666.676165 676.081342 2684.414603 33396 3657.477549
0.075000 0.075209 25641.377899 604.305312 8755.739944 931.406961 92.291626 44596 3657.477549
0.085000 0.085175 21306.478336 303.524772 8224.211231 396.254978 -119.105925 57124 3657.477549
0.095000 0.095157 18911.682376 489.955217 7479.655956 514.498107 798.060386 71620 3657.477549
0.105000 0.105162 15439.407935 254.745967 4764.105501 147.150644 1308.597207 87552 3657.477549
0.115000 0.115148 13823.093620 258.292109 4141.424000 185.305130 1286.464478 104524 3657.477549
0.125000 0.125146 13433.274649 76.997414 3892.875418 95.712417 -622.948197 124228 3657.477549
0.135000 0.135146 11943.276514 273.107872 3572.636199 236.618411 499.438167 144204 3657.477549
0.145000 0.145132 10172.464133 137.337409 2702.456507 76.767727 -78.587085 166492 3657.477549
0.155000 0.155114 9144.502171 168.655777 2664.405838 35.611470 -1085.475508 189964 3657.477549
0.165000 0.165102 8402.327482 106.656308 1024.369318 181.771868 -276.634130 215640 3657.477549
0.175000 0.175105 7509.197103 122.448173 1779.165342 66.865179 -18.137304 242836 3657.477549
0.185000 0.185097 7010.390756 78.997375 2059.275625 -54.712729 -255.058576 270556 3657.477549
0.195000 0.195085 6599.077384 88.401263 1895.086758 188.379742 677.936954 301084 3657.477549
0.205000 0.205080 6163.132167 63.273891 1447.263667 8.570054 934.622933 332628 3657.477549
0.215000 0.215092 5774.980988 57.997232 1356.172886 52.341423 -54.082483 367216 3657.477549
0.225000 0.225099 5361.060767 88.443556 854.802141 85.404728 214.006309 400444 3657.477549
0.235000 0.235081 4982.109629 67.458592 536.142946 -14.533457 -443.588152 436500 3657.477549
0.245000 0.245077 4746.731658 51.339321 776.270496 68.093254 387.781355 475900 3657.477549
0.255000 0.255082 4270.026613 98.895153 680.616602 -2.518926 108.300359 514900 3657.477549
0.265000 0.265074 3904.902160 48.562059 689.812573 34.890316 193.088730 555408 3657.477549
0.275000 0.275066 3826.544880 51.276551 233.589664 52.753391 434.784995 598684 3657.477549
0.285000 0.285066 3520.646300 59.064409 184.719859 -23.509798 133.453801 643228 3657.477549
0.295000 0.295058 3290.534525 45.174655 295.287200 -13.016827 50.660184 688036 3657.477549
