#Data file /home/DATA/sbrieden/Patchy_dr12_mocks/prerecon/original/Patchy-Mocks-DR12LOWZ-N-V5C-Portsmouth-mass_0094.dat
#Random file /home/DATA/sbrieden/Patchy_dr12_mocks/prerecon/original/Random-DR12LOWZ-N-V5C-x20.dat
#Number of data elements used: 235910
#Number of random elements used: 4685323
#Effective number of data elements weighted by wcol: 235910.000000
#Effective number of random elements weighted by wcol: 4685323.000000
#Effective number of data elements weighted by wcol*wsys: 235910.000000
#Effective number of random elements weighted by wcol*wsys: 4685323.000000
#Effective redshift value from data 0.330205
#Effective redshift value from randoms 0.330058
#Size of the Box 2500.000000 Mpc/h
#Area of the survey used 5826.000000 deg^2
#Value of alpha: 0.050298
#Normalization using data file
#Normalization using density
#Normalization 4.371388
#Shot noise factor 1.000000
#Shot noise value 3650.107705
#Type of Computation: FFT
#Number of grid cells: 512
#Type of Mass Assigment: TSC
#Type of Yamamoto: GridCenter
#Number of Interlacing steps: 2
#Grid Correction: yes
#Value of Om=0.310000
#Quadrupole as L2
#Octopole as L3
#Hexadecapole as L2L2
#k-centerbin	 k-eff	 Monopole-Pshotnoise	 Dipole	 Quadrupole	 Octopole	 Hexadecapole	 number of modes	 Pshotnoise
0.005000 0.007385 80282.653280 -15769.354441 -25386.849936 -25364.386735 -35936.191723 250 3650.107705
0.015000 0.016012 75444.802965 3611.611684 7632.251151 -11354.935006 -9195.089128 1852 3650.107705
0.025000 0.025646 65573.189230 2500.282054 38370.403542 5225.092157 -3548.867512 5020 3650.107705
0.035000 0.035469 52437.446098 761.323384 11391.372648 4236.396619 5417.004256 9756 3650.107705
0.045000 0.045368 41721.541746 1625.600054 8988.293345 -130.708765 1104.418716 16108 3650.107705
0.055000 0.055314 34313.775647 705.759270 13012.441091 862.884692 320.878230 24064 3650.107705
0.065000 0.065258 29404.807932 504.581969 8312.595878 1321.946432 4808.985634 33396 3650.107705
0.075000 0.075209 27364.002508 578.727222 7965.582229 -470.451033 -1227.041611 44596 3650.107705
0.085000 0.085175 22578.672255 674.276191 7579.174463 1063.693798 1237.992546 57124 3650.107705
0.095000 0.095157 17812.473744 341.608787 6880.043021 192.776703 2529.905609 71620 3650.107705
0.105000 0.105162 16259.500799 310.455984 6413.440399 231.714913 -559.446405 87552 3650.107705
0.115000 0.115148 14474.912402 188.170696 5177.559809 574.066971 680.693025 104524 3650.107705
0.125000 0.125146 12818.063354 276.339653 3772.787047 17.197434 -337.290930 124228 3650.107705
0.135000 0.135146 11761.843637 90.045169 3820.776660 122.877491 153.502048 144204 3650.107705
0.145000 0.145132 10202.368395 251.168374 3370.516302 120.188842 219.081798 166492 3650.107705
0.155000 0.155114 9258.029668 99.620380 2830.006994 176.067728 -93.500959 189964 3650.107705
0.165000 0.165102 8593.501123 101.306402 2240.327176 155.942332 446.260146 215640 3650.107705
0.175000 0.175105 7975.790293 130.121670 2135.739139 9.208771 172.575449 242836 3650.107705
0.185000 0.185097 6936.886150 123.297763 1819.484741 87.454832 309.448525 270556 3650.107705
0.195000 0.195085 6534.310910 47.076568 1328.146080 100.914408 -358.522058 301084 3650.107705
0.205000 0.205080 6146.021594 122.515846 1217.712127 -47.410006 206.484938 332628 3650.107705
0.215000 0.215092 5637.022112 63.935107 1166.610653 99.356705 161.568314 367216 3650.107705
0.225000 0.225099 5172.665215 74.108696 907.346958 -9.893173 -5.236815 400444 3650.107705
0.235000 0.235081 4832.255764 67.647595 797.453516 65.263947 69.908036 436500 3650.107705
0.245000 0.245077 4528.510518 34.286872 591.428985 44.147107 115.136288 475900 3650.107705
0.255000 0.255082 4436.788693 69.214309 361.498869 -12.072666 53.228297 514900 3650.107705
0.265000 0.265074 4018.592585 65.794975 377.477620 38.905624 50.117785 555408 3650.107705
0.275000 0.275066 3822.378319 53.735263 291.517567 32.599641 293.414388 598684 3650.107705
0.285000 0.285066 3543.817449 39.272744 113.021891 32.218261 378.096106 643228 3650.107705
0.295000 0.295058 3356.157830 67.224720 184.376989 -23.242923 227.649063 688036 3650.107705
