#Data file /home/DATA/sbrieden/Patchy_dr12_mocks/prerecon/original/Patchy-Mocks-DR12LOWZ-S-V5C-Portsmouth-mass_0044.dat
#Random file /home/DATA/sbrieden/Patchy_dr12_mocks/prerecon/original/Random-DR12LOWZ-S-V5C-x20.dat
#Number of data elements used: 99980
#Number of random elements used: 2007904
#Effective number of data elements weighted by wcol: 99980.000000
#Effective number of random elements weighted by wcol: 2007904.000000
#Effective number of data elements weighted by wcol*wsys: 99980.000000
#Effective number of random elements weighted by wcol*wsys: 2007904.000000
#Effective redshift value from data 0.331105
#Effective redshift value from randoms 0.330155
#Size of the Box 2500.000000 Mpc/h
#Area of the survey used 2501.000000 deg^2
#Value of alpha: 0.049917
#Normalization using data file
#Normalization using density
#Normalization 1.856716
#Shot noise factor 1.000000
#Shot noise value 3667.904206
#Type of Computation: FFT
#Number of grid cells: 512
#Type of Mass Assigment: TSC
#Type of Yamamoto: GridCenter
#Number of Interlacing steps: 2
#Grid Correction: yes
#Value of Om=0.310000
#Quadrupole as L2
#Octopole as L3
#Hexadecapole as L2L2
#k-centerbin	 k-eff	 Monopole-Pshotnoise	 Dipole	 Quadrupole	 Octopole	 Hexadecapole	 number of modes	 Pshotnoise
0.005000 0.007385 44164.298722 -5884.938313 25147.615417 3636.120641 -4044.726013 250 3667.904206
0.015000 0.016012 76576.180230 1006.438020 31727.759696 -19130.324699 -18287.848077 1852 3667.904206
0.025000 0.025646 65635.862024 5555.539849 43163.349282 17273.283056 168.712921 5020 3667.904206
0.035000 0.035469 43458.559566 23.770654 11735.835924 -327.577603 3572.133904 9756 3667.904206
0.045000 0.045368 39611.772493 1115.972652 6555.930001 1857.982155 -2054.213144 16108 3667.904206
0.055000 0.055314 31805.081684 732.306245 15415.963368 1610.460974 14120.701559 24064 3667.904206
0.065000 0.065258 27876.835016 473.950035 10943.700085 876.136769 5024.097709 33396 3667.904206
0.075000 0.075209 25606.162621 711.493517 9382.060942 -1256.965990 -183.493816 44596 3667.904206
0.085000 0.085175 21312.269405 340.086272 8500.180558 1329.061812 -3864.371184 57124 3667.904206
0.095000 0.095157 17811.270002 562.299416 6504.686080 430.792245 1072.344181 71620 3667.904206
0.105000 0.105162 14742.617506 143.636608 5121.337117 -63.645225 -44.764217 87552 3667.904206
0.115000 0.115148 14482.189234 175.866775 5429.988911 499.035387 -804.586112 104524 3667.904206
0.125000 0.125146 12860.436600 174.305130 3937.558943 326.786785 455.083623 124228 3667.904206
0.135000 0.135146 11421.609031 227.805310 3960.080770 -9.812168 2266.276947 144204 3667.904206
0.145000 0.145132 9993.103797 132.075850 3334.666050 255.584225 653.697975 166492 3667.904206
0.155000 0.155114 9213.585163 146.960249 2651.471675 366.678188 1284.755684 189964 3667.904206
0.165000 0.165102 8299.015606 112.780836 2322.739815 -142.639930 1555.296731 215640 3667.904206
0.175000 0.175105 7715.737470 119.386369 1826.354768 93.830292 27.907989 242836 3667.904206
0.185000 0.185097 7003.413452 99.884179 1534.199394 60.698170 323.286336 270556 3667.904206
0.195000 0.195085 6723.007090 41.663446 1251.724873 185.603222 713.184656 301084 3667.904206
0.205000 0.205080 6089.532630 105.966770 1281.215130 -126.187983 623.793291 332628 3667.904206
0.215000 0.215092 5638.419702 65.979198 1290.391867 33.766425 -14.353395 367216 3667.904206
0.225000 0.225099 5276.788892 98.302696 935.532805 74.437732 -23.158220 400444 3667.904206
0.235000 0.235081 4672.448549 84.042910 785.593769 39.411357 353.741060 436500 3667.904206
0.245000 0.245077 4627.675231 45.683023 643.934169 15.278024 -19.741278 475900 3667.904206
0.255000 0.255082 4224.667399 31.767853 592.343197 91.696243 559.764125 514900 3667.904206
0.265000 0.265074 4036.825108 69.064724 492.840205 -29.783776 89.959947 555408 3667.904206
0.275000 0.275066 3785.111389 62.886342 516.458219 -20.775267 40.082990 598684 3667.904206
0.285000 0.285066 3628.138367 44.655752 340.728982 13.619384 -58.830100 643228 3667.904206
0.295000 0.295058 3434.492238 40.564676 281.210385 77.932958 110.675537 688036 3667.904206
