#Data file /home/DATA/sbrieden/Patchy_dr12_mocks/prerecon/original/Patchy-Mocks-DR12LOWZ-N-V5C-Portsmouth-mass_0070.dat
#Random file /home/DATA/sbrieden/Patchy_dr12_mocks/prerecon/original/Random-DR12LOWZ-N-V5C-x20.dat
#Number of data elements used: 232229
#Number of random elements used: 4685323
#Effective number of data elements weighted by wcol: 232229.000000
#Effective number of random elements weighted by wcol: 4685323.000000
#Effective number of data elements weighted by wcol*wsys: 232229.000000
#Effective number of random elements weighted by wcol*wsys: 4685323.000000
#Effective redshift value from data 0.329811
#Effective redshift value from randoms 0.330058
#Size of the Box 2500.000000 Mpc/h
#Area of the survey used 5826.000000 deg^2
#Value of alpha: 0.049579
#Normalization using data file
#Normalization using density
#Normalization 4.306669
#Shot noise factor 1.000000
#Shot noise value 3654.645061
#Type of Computation: FFT
#Number of grid cells: 512
#Type of Mass Assigment: TSC
#Type of Yamamoto: GridCenter
#Number of Interlacing steps: 2
#Grid Correction: yes
#Value of Om=0.310000
#Quadrupole as L2
#Octopole as L3
#Hexadecapole as L2L2
#k-centerbin	 k-eff	 Monopole-Pshotnoise	 Dipole	 Quadrupole	 Octopole	 Hexadecapole	 number of modes	 Pshotnoise
0.005000 0.007385 49646.864160 -7893.422103 -29276.449481 -21818.394771 -14647.188178 250 3654.645061
0.015000 0.016012 74299.037657 -3053.202515 16191.793428 11325.962554 14497.493340 1852 3654.645061
0.025000 0.025646 72940.163021 3922.725600 14063.050532 744.381493 973.606828 5020 3654.645061
0.035000 0.035469 49543.648471 1443.720929 9326.329791 1172.779550 20140.820643 9756 3654.645061
0.045000 0.045368 38893.063938 1973.601595 20198.628353 1159.502009 518.783511 16108 3654.645061
0.055000 0.055314 32682.041582 -72.880626 16065.563180 697.361500 884.275259 24064 3654.645061
0.065000 0.065258 31921.915124 933.853127 14639.549722 1953.583145 -59.993829 33396 3654.645061
0.075000 0.075209 26236.358688 614.085805 10029.734587 519.656121 2025.722149 44596 3654.645061
0.085000 0.085175 21714.303609 401.943604 6723.387736 568.763923 -1119.884914 57124 3654.645061
0.095000 0.095157 17356.570005 515.378268 4913.880036 -81.984928 -93.741992 71620 3654.645061
0.105000 0.105162 15129.251417 265.679645 4649.788595 294.935487 -845.596950 87552 3654.645061
0.115000 0.115148 14431.542512 134.188515 4673.963386 388.628934 -281.086509 104524 3654.645061
0.125000 0.125146 12935.316761 238.447376 3534.308106 12.547802 -536.861521 124228 3654.645061
0.135000 0.135146 11592.084528 197.137890 4463.497243 203.028795 -261.348026 144204 3654.645061
0.145000 0.145132 10131.871356 170.975031 3015.025731 155.400757 -249.774019 166492 3654.645061
0.155000 0.155114 9181.553201 90.961560 2314.710053 121.507864 514.117927 189964 3654.645061
0.165000 0.165102 8352.358928 164.912805 1735.014035 50.182301 -131.291521 215640 3654.645061
0.175000 0.175105 7590.467844 119.423012 2145.276204 128.775761 389.492953 242836 3654.645061
0.185000 0.185097 6980.100146 50.416214 1662.380731 29.700900 424.335787 270556 3654.645061
0.195000 0.195085 6651.050879 84.601287 1549.908323 107.500463 446.043575 301084 3654.645061
0.205000 0.205080 6045.269595 121.614453 1204.273505 3.625205 445.977548 332628 3654.645061
0.215000 0.215092 5533.511404 59.472487 1064.516710 78.643132 267.896372 367216 3654.645061
0.225000 0.225099 5203.304087 75.080328 1025.305509 24.518856 292.651702 400444 3654.645061
0.235000 0.235081 4833.556324 69.142268 947.284007 -12.316415 208.146144 436500 3654.645061
0.245000 0.245077 4525.403821 64.238150 917.939664 58.891743 212.590386 475900 3654.645061
0.255000 0.255082 4266.168462 43.416234 725.130554 38.501472 181.341648 514900 3654.645061
0.265000 0.265074 3888.975929 70.493252 447.140040 54.906024 152.923888 555408 3654.645061
0.275000 0.275066 3680.523919 41.702552 161.831922 7.709742 155.341675 598684 3654.645061
0.285000 0.285066 3429.750736 69.352494 99.536387 41.033850 170.375133 643228 3654.645061
0.295000 0.295058 3233.968712 40.829296 200.539664 -4.499657 108.188540 688036 3654.645061
