#Data file /home/DATA/sbrieden/Patchy_dr12_mocks/prerecon/original/Patchy-Mocks-DR12LOWZ-S-V5C-Portsmouth-mass_0089.dat
#Random file /home/DATA/sbrieden/Patchy_dr12_mocks/prerecon/original/Random-DR12LOWZ-S-V5C-x20.dat
#Number of data elements used: 99237
#Number of random elements used: 2007904
#Effective number of data elements weighted by wcol: 99237.000000
#Effective number of random elements weighted by wcol: 2007904.000000
#Effective number of data elements weighted by wcol*wsys: 99237.000000
#Effective number of random elements weighted by wcol*wsys: 2007904.000000
#Effective redshift value from data 0.329556
#Effective redshift value from randoms 0.330155
#Size of the Box 2500.000000 Mpc/h
#Area of the survey used 2501.000000 deg^2
#Value of alpha: 0.049360
#Normalization using data file
#Normalization using density
#Normalization 1.838636
#Shot noise factor 1.000000
#Shot noise value 3646.170149
#Type of Computation: FFT
#Number of grid cells: 512
#Type of Mass Assigment: TSC
#Type of Yamamoto: GridCenter
#Number of Interlacing steps: 2
#Grid Correction: yes
#Value of Om=0.310000
#Quadrupole as L2
#Octopole as L3
#Hexadecapole as L2L2
#k-centerbin	 k-eff	 Monopole-Pshotnoise	 Dipole	 Quadrupole	 Octopole	 Hexadecapole	 number of modes	 Pshotnoise
0.005000 0.007385 125131.213845 -6852.967120 -53697.084611 -74621.063907 -119691.027490 250 3646.170149
0.015000 0.016012 83112.291317 5409.289454 19326.910108 -21077.036302 -61356.624627 1852 3646.170149
0.025000 0.025646 78891.509678 2350.007997 81304.197177 10680.773392 -3010.690424 5020 3646.170149
0.035000 0.035469 57944.812470 3065.172601 38352.797132 6634.521907 -6758.235511 9756 3646.170149
0.045000 0.045368 41675.912643 322.050240 17741.215435 4480.795324 6437.943170 16108 3646.170149
0.055000 0.055314 37189.266758 1666.177610 9537.718652 -793.790719 -8689.692739 24064 3646.170149
0.065000 0.065258 28806.424907 393.867927 14138.349270 2934.118916 7551.780859 33396 3646.170149
0.075000 0.075209 24993.288282 939.625342 7709.042369 -342.550244 1405.676673 44596 3646.170149
0.085000 0.085175 21325.059406 150.312439 9956.730009 658.066273 5966.153569 57124 3646.170149
0.095000 0.095157 18469.120080 660.843054 7464.762458 415.882739 3258.122551 71620 3646.170149
0.105000 0.105162 14607.745952 166.177759 4819.311821 713.570275 -828.439237 87552 3646.170149
0.115000 0.115148 13680.605424 184.632377 4602.246763 62.475801 3464.757069 104524 3646.170149
0.125000 0.125146 12569.884491 237.921722 4813.820654 -6.142114 112.152435 124228 3646.170149
0.135000 0.135146 11649.949901 57.969452 3855.143503 81.717351 -856.011931 144204 3646.170149
0.145000 0.145132 10646.581375 221.687312 3290.423932 252.286139 -369.942591 166492 3646.170149
0.155000 0.155114 9488.300918 133.127026 2774.697121 166.725696 -798.516702 189964 3646.170149
0.165000 0.165102 8374.503560 134.725630 2069.670904 69.225058 -298.641730 215640 3646.170149
0.175000 0.175105 7644.249462 139.740632 2489.850109 105.587825 341.844896 242836 3646.170149
0.185000 0.185097 7044.865839 64.458472 1802.951023 83.938882 -38.725341 270556 3646.170149
0.195000 0.195085 6451.617980 89.152345 1022.058560 120.676082 -125.957394 301084 3646.170149
0.205000 0.205080 6027.225734 106.540776 1500.725674 -74.971156 334.289986 332628 3646.170149
0.215000 0.215092 5732.043472 33.151996 1213.577341 193.287185 746.316034 367216 3646.170149
0.225000 0.225099 5237.930940 116.136233 644.941251 66.151596 425.424311 400444 3646.170149
0.235000 0.235081 4831.662276 48.873380 1183.815315 -85.448568 432.995974 436500 3646.170149
0.245000 0.245077 4487.697176 59.282260 899.501313 140.768232 793.461883 475900 3646.170149
0.255000 0.255082 4321.100686 69.991599 906.252178 -79.774670 306.276009 514900 3646.170149
0.265000 0.265074 3990.299047 61.191740 508.819359 63.947338 95.992232 555408 3646.170149
0.275000 0.275066 3705.346221 29.869219 145.702329 43.471423 116.811228 598684 3646.170149
0.285000 0.285066 3561.809330 80.344716 368.815273 -12.812829 357.406736 643228 3646.170149
0.295000 0.295058 3150.167731 64.658529 312.968387 21.901721 377.133599 688036 3646.170149
