#Data file /home/DATA/sbrieden/Patchy_dr12_mocks/prerecon/original/Patchy-Mocks-DR12CMASS-N-V6C-Portsmouth-mass_0043.dat
#Random file /home/DATA/sbrieden/Patchy_dr12_mocks/prerecon/original/Random-DR12CMASS-N-V6C-x20.dat
#Number of data elements used: 593540
#Number of random elements used: 11797448
#Effective number of data elements weighted by wcol: 593540.000000
#Effective number of random elements weighted by wcol: 11797448.000000
#Effective number of data elements weighted by wcol*wsys: 593540.000000
#Effective number of random elements weighted by wcol*wsys: 11797448.000000
#Effective redshift value from data 0.597901
#Effective redshift value from randoms 0.597992
#Size of the Box 3700.000000 Mpc/h
#Area of the survey used 6851.000000 deg^2
#Value of alpha: 0.050273
#Normalization using data file
#Normalization using density
#Normalization 11.148330
#Shot noise factor 1.000000
#Shot noise value 4942.323572
#Type of Computation: FFT
#Number of grid cells: 512
#Type of Mass Assigment: TSC
#Type of Yamamoto: GridCenter
#Number of Interlacing steps: 2
#Grid Correction: yes
#Value of Om=0.310000
#Quadrupole as L2
#Octopole as L3
#Hexadecapole as L2L2
#k-centerbin	 k-eff	 Monopole-Pshotnoise	 Dipole	 Quadrupole	 Octopole	 Hexadecapole	 number of modes	 Pshotnoise
0.005000 0.007485 50700.231896 -5808.688897 13431.127800 -9042.092580 -14706.606463 846 4942.323572
0.015000 0.016072 76598.014297 1808.282841 35362.944132 10431.005574 25996.144776 6012 4942.323572
0.025000 0.025646 61327.949926 1879.921053 30812.462799 1400.323211 7672.292749 16172 4942.323572
0.035000 0.035469 44969.502256 1083.877889 23026.201551 1530.775179 6760.562472 31764 4942.323572
0.045000 0.045378 35724.873739 716.228854 15669.863266 1361.200268 -370.940867 52164 4942.323572
0.055000 0.055280 31304.996290 193.898012 12479.142476 721.045756 -1021.297490 77396 4942.323572
0.065000 0.065232 26965.850493 330.009583 9780.437116 268.334638 318.609107 108936 4942.323572
0.075000 0.075229 24324.253450 300.471715 9449.352302 299.887407 416.772126 144980 4942.323572
0.085000 0.085193 20953.019155 281.511506 9401.736142 382.844292 625.189056 184854 4942.323572
0.095000 0.095166 17198.149226 301.325999 6371.400305 138.104212 -35.670782 232260 4942.323572
0.105000 0.105155 14407.259036 201.675844 5525.693324 356.578666 748.180130 282884 4942.323572
0.115000 0.115131 12835.773870 115.251600 4565.809256 99.705992 1454.639643 339084 4942.323572
0.125000 0.125124 11827.462739 114.846290 3737.779240 191.221628 838.820408 401864 4942.323572
0.135000 0.135125 10675.803738 103.031719 3140.513404 62.192145 629.928832 468084 4942.323572
0.145000 0.145120 9757.232913 106.318889 3129.835103 33.054229 -220.242927 539940 4942.323572
0.155000 0.155118 8732.731285 114.080206 2968.708110 129.598310 994.670196 617324 4942.323572
0.165000 0.165105 7832.457054 96.607877 2573.035072 46.686717 493.997821 697452 4942.323572
0.175000 0.175088 7081.596250 74.463638 1989.444688 55.868828 245.536536 785846 4942.323572
0.185000 0.185089 6574.084141 76.886253 1700.754100 73.013642 689.103553 879528 4942.323572
0.195000 0.195093 6093.669114 73.634998 1555.347200 38.175726 559.748965 976596 4942.323572
0.205000 0.205084 5675.273995 76.591587 1487.894659 -2.562472 476.413174 1077212 4942.323572
0.215000 0.215076 5321.294775 44.642775 1272.802172 70.098665 555.810143 1186908 4942.323572
0.225000 0.225076 4883.789922 74.685026 1009.167594 19.351334 402.762407 1299452 4942.323572
0.235000 0.235073 4567.309826 61.313569 779.791468 27.271007 360.252740 1417356 4942.323572
0.245000 0.245067 4301.940005 57.613256 607.315282 7.239168 394.311746 1539600 4942.323572
0.255000 0.255064 4060.275491 54.272787 512.922065 26.150871 109.197108 1669820 4942.323572
0.265000 0.265061 3761.194149 59.184343 391.362930 12.975462 220.357379 1801086 4942.323572
0.275000 0.275060 3542.098311 62.769193 434.939367 -11.253959 241.923503 1942244 4942.323572
0.285000 0.285062 3333.927095 55.056970 319.678026 32.098488 281.107956 2084796 4942.323572
0.295000 0.295057 3130.819516 45.367211 231.616724 18.121970 220.012010 2231868 4942.323572
