#Data file /home/DATA/sbrieden/Patchy_dr12_mocks/prerecon/original/Patchy-Mocks-DR12CMASS-S-V6C-Portsmouth-mass_0076.dat
#Random file /home/DATA/sbrieden/Patchy_dr12_mocks/prerecon/original/Random-DR12CMASS-S-V6C-x20.dat
#Number of data elements used: 216961
#Number of random elements used: 4288842
#Effective number of data elements weighted by wcol: 216961.000000
#Effective number of random elements weighted by wcol: 4288842.000000
#Effective number of data elements weighted by wcol*wsys: 216961.000000
#Effective number of random elements weighted by wcol*wsys: 4288842.000000
#Effective redshift value from data 0.596837
#Effective redshift value from randoms 0.597190
#Size of the Box 3700.000000 Mpc/h
#Area of the survey used 2525.000000 deg^2
#Value of alpha: 0.050521
#Normalization using data file
#Normalization using density
#Normalization 4.117651
#Shot noise factor 1.000000
#Shot noise value 4921.574463
#Type of Computation: FFT
#Number of grid cells: 512
#Type of Mass Assigment: TSC
#Type of Yamamoto: GridCenter
#Number of Interlacing steps: 2
#Grid Correction: yes
#Value of Om=0.310000
#Quadrupole as L2
#Octopole as L3
#Hexadecapole as L2L2
#k-centerbin	 k-eff	 Monopole-Pshotnoise	 Dipole	 Quadrupole	 Octopole	 Hexadecapole	 number of modes	 Pshotnoise
0.005000 0.007485 82556.643665 -3538.769170 -28753.957715 -27163.791659 -37428.822517 846 4921.574463
0.015000 0.016072 74246.350956 3365.962600 37222.601075 -186.240030 -28252.467443 6012 4921.574463
0.025000 0.025646 56525.400658 964.417291 30837.833625 3829.795566 8983.150964 16172 4921.574463
0.035000 0.035469 46397.368044 786.845096 17813.098051 2552.824848 10875.764573 31764 4921.574463
0.045000 0.045378 36495.027456 737.865701 12373.464106 656.058806 -1876.935658 52164 4921.574463
0.055000 0.055280 30814.584185 504.285376 9678.111990 -590.072001 -3480.599051 77396 4921.574463
0.065000 0.065232 27457.126083 137.241085 14973.768425 1250.197740 2041.178166 108936 4921.574463
0.075000 0.075229 24498.525012 469.384082 11369.224306 197.067342 5664.255420 144980 4921.574463
0.085000 0.085193 20197.070091 227.936643 8738.813604 501.186329 739.176684 184854 4921.574463
0.095000 0.095166 17562.822678 216.645471 6242.956314 399.728561 812.062525 232260 4921.574463
0.105000 0.105155 14792.482949 188.116879 5752.136632 335.596386 2880.831686 282884 4921.574463
0.115000 0.115131 13250.837061 97.764267 3684.433113 76.979706 799.372485 339084 4921.574463
0.125000 0.125124 11872.570425 196.942808 3265.172679 -4.168283 -354.680827 401864 4921.574463
0.135000 0.135125 10625.079950 130.776571 3342.338322 36.870557 373.140584 468084 4921.574463
0.145000 0.145120 9326.242477 115.780697 3316.964666 153.085837 766.302759 539940 4921.574463
0.155000 0.155118 8430.961049 88.463163 1860.026270 44.395563 11.713316 617324 4921.574463
0.165000 0.165105 7629.085073 80.347284 2214.807865 49.100990 326.175149 697452 4921.574463
0.175000 0.175088 7295.872678 55.707591 2251.051641 -4.408586 253.528077 785846 4921.574463
0.185000 0.185089 6777.442371 81.422990 1573.553996 87.899514 -38.835218 879528 4921.574463
0.195000 0.195093 6222.050058 75.136206 1469.399073 55.074043 91.722684 976596 4921.574463
0.205000 0.205084 5699.438463 68.943323 1125.573761 -7.310044 316.859299 1077212 4921.574463
0.215000 0.215076 5438.974074 69.307705 1267.651817 15.674819 164.645936 1186908 4921.574463
0.225000 0.225076 4943.892671 67.719846 1181.970340 48.279375 -98.016218 1299452 4921.574463
0.235000 0.235073 4554.913016 60.853845 879.985363 42.450823 199.182699 1417356 4921.574463
0.245000 0.245067 4264.847592 63.205557 827.407446 2.698096 289.779466 1539600 4921.574463
0.255000 0.255064 3920.587751 57.268344 736.229414 44.247320 148.867154 1669820 4921.574463
0.265000 0.265061 3796.058001 52.552403 610.447145 -3.112982 370.496287 1801086 4921.574463
0.275000 0.275060 3603.759075 49.407931 301.362020 38.847388 -10.807336 1942244 4921.574463
0.285000 0.285062 3403.703738 61.690708 202.452758 15.396104 333.057842 2084796 4921.574463
0.295000 0.295057 3225.410466 51.585915 133.502470 -4.187183 298.005709 2231868 4921.574463
