#Data file /home/DATA/sbrieden/Patchy_dr12_mocks/prerecon/original/Patchy-Mocks-DR12LOWZ-S-V5C-Portsmouth-mass_0038.dat
#Random file /home/DATA/sbrieden/Patchy_dr12_mocks/prerecon/original/Random-DR12LOWZ-S-V5C-x20.dat
#Number of data elements used: 99174
#Number of random elements used: 2007904
#Effective number of data elements weighted by wcol: 99174.000000
#Effective number of random elements weighted by wcol: 2007904.000000
#Effective number of data elements weighted by wcol*wsys: 99174.000000
#Effective number of random elements weighted by wcol*wsys: 2007904.000000
#Effective redshift value from data 0.331406
#Effective redshift value from randoms 0.330155
#Size of the Box 2500.000000 Mpc/h
#Area of the survey used 2501.000000 deg^2
#Value of alpha: 0.049547
#Normalization using data file
#Normalization using density
#Normalization 1.842216
#Shot noise factor 1.000000
#Shot noise value 3672.113152
#Type of Computation: FFT
#Number of grid cells: 512
#Type of Mass Assigment: TSC
#Type of Yamamoto: GridCenter
#Number of Interlacing steps: 2
#Grid Correction: yes
#Value of Om=0.310000
#Quadrupole as L2
#Octopole as L3
#Hexadecapole as L2L2
#k-centerbin	 k-eff	 Monopole-Pshotnoise	 Dipole	 Quadrupole	 Octopole	 Hexadecapole	 number of modes	 Pshotnoise
0.005000 0.007385 71642.464019 -2750.225401 15956.957977 -26377.521868 -56372.558189 250 3672.113152
0.015000 0.016012 53890.134375 1202.060827 -10146.775882 -7420.667283 -25373.825268 1852 3672.113152
0.025000 0.025646 47769.307077 974.303844 15289.029315 -1462.915926 -16688.216341 5020 3672.113152
0.035000 0.035469 44622.482669 1175.795567 22103.545746 2128.986143 9636.694266 9756 3672.113152
0.045000 0.045368 41411.080481 520.113040 12970.428732 1691.229377 -2732.354806 16108 3672.113152
0.055000 0.055314 32658.454892 1200.224342 11497.296396 1333.886280 8002.622650 24064 3672.113152
0.065000 0.065258 27321.470241 529.266022 10638.466733 -289.702314 379.564302 33396 3672.113152
0.075000 0.075209 25401.675671 284.186293 6738.713124 1113.370154 -3100.462530 44596 3672.113152
0.085000 0.085175 22422.116762 424.835020 7950.570158 32.691558 845.603184 57124 3672.113152
0.095000 0.095157 17932.122807 607.845245 4575.951198 715.730753 1370.666772 71620 3672.113152
0.105000 0.105162 14522.301958 264.299702 3937.623280 -108.662846 339.759548 87552 3672.113152
0.115000 0.115148 13444.124048 104.598898 3841.158853 514.467044 6.192678 104524 3672.113152
0.125000 0.125146 12954.004261 181.882876 3792.982487 -169.939925 -82.327166 124228 3672.113152
0.135000 0.135146 11032.157488 242.769066 2528.854906 196.762324 -87.983886 144204 3672.113152
0.145000 0.145132 9964.894354 228.739852 3418.801697 -280.568192 -923.993892 166492 3672.113152
0.155000 0.155114 8977.971461 55.304633 3450.138940 627.172859 1109.140095 189964 3672.113152
0.165000 0.165102 8474.715275 144.066905 2897.216629 -117.809234 1621.727939 215640 3672.113152
0.175000 0.175105 7952.841764 54.185864 2437.643367 156.738428 -32.665547 242836 3672.113152
0.185000 0.185097 7301.401536 109.646351 1777.428061 185.649788 424.719387 270556 3672.113152
0.195000 0.195085 6623.715886 89.407215 1370.702946 18.051209 308.988386 301084 3672.113152
0.205000 0.205080 6186.439837 64.669659 1459.965868 40.591246 312.410497 332628 3672.113152
0.215000 0.215092 5610.832246 120.882987 1027.947280 64.334143 350.937272 367216 3672.113152
0.225000 0.225099 5164.884068 32.001302 1006.909872 26.364818 -18.253573 400444 3672.113152
0.235000 0.235081 4960.126092 94.878610 851.624672 46.926521 300.399520 436500 3672.113152
0.245000 0.245077 4343.647066 65.494441 449.706225 67.835566 335.579888 475900 3672.113152
0.255000 0.255082 4065.179514 51.907947 410.706256 54.570097 649.869129 514900 3672.113152
0.265000 0.265074 4030.242512 44.622417 383.495974 -56.926632 177.624272 555408 3672.113152
0.275000 0.275066 3819.572920 55.451365 457.587639 14.865731 123.432914 598684 3672.113152
0.285000 0.285066 3529.835451 54.566298 -16.042432 64.349821 37.782251 643228 3672.113152
0.295000 0.295058 3294.114451 48.153687 -27.015595 -31.425550 -104.400485 688036 3672.113152
