#Data file /home/DATA/sbrieden/Patchy_dr12_mocks/prerecon/original/Patchy-Mocks-DR12CMASS-S-V6C-Portsmouth-mass_0095.dat
#Random file /home/DATA/sbrieden/Patchy_dr12_mocks/prerecon/original/Random-DR12CMASS-S-V6C-x20.dat
#Number of data elements used: 216144
#Number of random elements used: 4288842
#Effective number of data elements weighted by wcol: 216144.000000
#Effective number of random elements weighted by wcol: 4288842.000000
#Effective number of data elements weighted by wcol*wsys: 216144.000000
#Effective number of random elements weighted by wcol*wsys: 4288842.000000
#Effective redshift value from data 0.596626
#Effective redshift value from randoms 0.597190
#Size of the Box 3700.000000 Mpc/h
#Area of the survey used 2525.000000 deg^2
#Value of alpha: 0.050338
#Normalization using data file
#Normalization using density
#Normalization 4.103533
#Shot noise factor 1.000000
#Shot noise value 4917.864110
#Type of Computation: FFT
#Number of grid cells: 512
#Type of Mass Assigment: TSC
#Type of Yamamoto: GridCenter
#Number of Interlacing steps: 2
#Grid Correction: yes
#Value of Om=0.310000
#Quadrupole as L2
#Octopole as L3
#Hexadecapole as L2L2
#k-centerbin	 k-eff	 Monopole-Pshotnoise	 Dipole	 Quadrupole	 Octopole	 Hexadecapole	 number of modes	 Pshotnoise
0.005000 0.007485 65099.561717 -3165.522548 38088.267089 968.412884 -32989.843054 846 4917.864110
0.015000 0.016072 68674.693411 1577.098714 22884.135530 798.977148 -17507.789074 6012 4917.864110
0.025000 0.025646 55149.563421 752.495685 4668.997159 -581.775068 -14915.009683 16172 4917.864110
0.035000 0.035469 48429.557574 863.657810 14507.317995 598.254861 -8529.770160 31764 4917.864110
0.045000 0.045378 37204.201918 942.704094 10079.074209 -395.795532 -5822.529238 52164 4917.864110
0.055000 0.055280 31359.070671 411.706849 13795.504463 934.735898 5881.422416 77396 4917.864110
0.065000 0.065232 26673.218019 308.152389 13995.328586 458.311141 812.835063 108936 4917.864110
0.075000 0.075229 24761.793173 175.962965 10083.154277 567.565763 -2404.811213 144980 4917.864110
0.085000 0.085193 20776.746903 292.048814 5618.179973 657.337391 560.315799 184854 4917.864110
0.095000 0.095166 17168.530939 240.540773 5062.384424 75.390253 994.521658 232260 4917.864110
0.105000 0.105155 13947.001719 273.297768 4169.002929 74.485638 221.179740 282884 4917.864110
0.115000 0.115131 12519.257911 84.516532 3078.596765 -15.775156 -341.853592 339084 4917.864110
0.125000 0.125124 12135.430959 112.819652 3517.506928 193.091951 1081.013056 401864 4917.864110
0.135000 0.135125 10669.494765 151.222793 2867.396020 66.701686 345.946356 468084 4917.864110
0.145000 0.145120 9768.445723 94.752597 2371.171991 10.474264 750.367626 539940 4917.864110
0.155000 0.155118 8708.939838 125.697858 2392.409191 51.732979 -416.546279 617324 4917.864110
0.165000 0.165105 7615.426534 87.659725 2215.416207 26.766710 576.314229 697452 4917.864110
0.175000 0.175088 6957.482380 78.568830 2085.844957 79.785459 16.308232 785846 4917.864110
0.185000 0.185089 6744.435692 61.272875 1436.501686 10.585970 566.956287 879528 4917.864110
0.195000 0.195093 6262.944518 74.407875 1701.044732 90.723604 89.361486 976596 4917.864110
0.205000 0.205084 5646.042557 59.861493 986.903344 70.644004 698.074597 1077212 4917.864110
0.215000 0.215076 5325.345852 83.575101 1108.172683 -36.691134 367.599037 1186908 4917.864110
0.225000 0.225076 4837.085383 61.551482 736.286421 28.547734 269.739274 1299452 4917.864110
0.235000 0.235073 4595.755206 50.880055 622.150392 24.274325 -242.970596 1417356 4917.864110
0.245000 0.245067 4271.563047 57.626315 426.126136 27.551480 -61.370282 1539600 4917.864110
0.255000 0.255064 4056.730945 64.939353 490.122123 -0.575490 78.868962 1669820 4917.864110
0.265000 0.265061 3703.419579 54.795981 384.395081 15.524563 -22.920159 1801086 4917.864110
0.275000 0.275060 3522.466653 63.325909 303.645705 4.934852 187.956628 1942244 4917.864110
0.285000 0.285062 3292.279959 40.958468 305.675961 23.931710 25.336941 2084796 4917.864110
0.295000 0.295057 3228.105403 65.142201 117.404605 5.140735 156.742349 2231868 4917.864110
