#Data file /home/DATA/sbrieden/Patchy_dr12_mocks/prerecon/original/Patchy-Mocks-DR12LOWZ-N-V5C-Portsmouth-mass_0036.dat
#Random file /home/DATA/sbrieden/Patchy_dr12_mocks/prerecon/original/Random-DR12LOWZ-N-V5C-x20.dat
#Number of data elements used: 235945
#Number of random elements used: 4685323
#Effective number of data elements weighted by wcol: 235945.000000
#Effective number of random elements weighted by wcol: 4685323.000000
#Effective number of data elements weighted by wcol*wsys: 235945.000000
#Effective number of random elements weighted by wcol*wsys: 4685323.000000
#Effective redshift value from data 0.329886
#Effective redshift value from randoms 0.330058
#Size of the Box 2500.000000 Mpc/h
#Area of the survey used 5826.000000 deg^2
#Value of alpha: 0.050373
#Normalization using data file
#Normalization using density
#Normalization 4.375787
#Shot noise factor 1.000000
#Shot noise value 3657.051185
#Type of Computation: FFT
#Number of grid cells: 512
#Type of Mass Assigment: TSC
#Type of Yamamoto: GridCenter
#Number of Interlacing steps: 2
#Grid Correction: yes
#Value of Om=0.310000
#Quadrupole as L2
#Octopole as L3
#Hexadecapole as L2L2
#k-centerbin	 k-eff	 Monopole-Pshotnoise	 Dipole	 Quadrupole	 Octopole	 Hexadecapole	 number of modes	 Pshotnoise
0.005000 0.007385 65132.076318 -4913.883886 14896.974937 -26877.653359 -62894.300392 250 3657.051185
0.015000 0.016012 76633.278416 2370.769521 20709.099305 -8000.759159 -40409.232584 1852 3657.051185
0.025000 0.025646 71720.051474 1475.076880 33646.460602 13114.634695 21198.366116 5020 3657.051185
0.035000 0.035469 51909.709188 2874.888429 14276.026315 -666.029918 5341.721093 9756 3657.051185
0.045000 0.045368 38499.651084 1209.210705 14848.275208 2629.950592 -2662.384291 16108 3657.051185
0.055000 0.055314 33178.032145 272.859780 13522.350496 344.932405 843.804150 24064 3657.051185
0.065000 0.065258 31582.530666 786.129552 13240.866281 1018.965151 -759.672425 33396 3657.051185
0.075000 0.075209 26882.055041 576.862043 14744.270050 758.363931 5430.411452 44596 3657.051185
0.085000 0.085175 22252.859323 607.953349 8305.307856 830.523175 -570.525494 57124 3657.051185
0.095000 0.095157 18748.267747 358.868127 7826.569010 191.171423 -565.442297 71620 3657.051185
0.105000 0.105162 15872.633472 345.106680 7193.786555 959.563246 2105.835387 87552 3657.051185
0.115000 0.115148 14182.161431 235.364638 4356.071976 -205.933674 110.113463 104524 3657.051185
0.125000 0.125146 13094.840779 161.338460 4312.016409 207.652905 -129.163655 124228 3657.051185
0.135000 0.135146 11636.150952 200.168968 3685.912743 275.956832 -294.534258 144204 3657.051185
0.145000 0.145132 10343.875522 190.426420 3417.342060 91.204327 234.995517 166492 3657.051185
0.155000 0.155114 9266.455390 123.801453 2547.710690 230.660041 922.104887 189964 3657.051185
0.165000 0.165102 8516.187120 125.803247 3051.736967 -86.761912 470.674221 215640 3657.051185
0.175000 0.175105 7692.808280 120.019870 2207.110540 304.345211 463.586274 242836 3657.051185
0.185000 0.185097 7049.213557 94.702035 1991.827143 -3.843465 566.778515 270556 3657.051185
0.195000 0.195085 6489.075856 109.830471 1825.734215 13.462300 327.709827 301084 3657.051185
0.205000 0.205080 6167.723346 52.253102 1505.757811 54.964551 -42.598543 332628 3657.051185
0.215000 0.215092 5606.239614 68.813947 1411.833615 124.166996 250.908146 367216 3657.051185
0.225000 0.225099 5172.048584 84.956704 1098.173519 -1.133966 177.638901 400444 3657.051185
0.235000 0.235081 4881.990342 55.211626 764.032404 80.323162 217.587000 436500 3657.051185
0.245000 0.245077 4624.366069 81.755893 646.567371 -26.109871 78.640804 475900 3657.051185
0.255000 0.255082 4234.915238 52.139889 689.213324 73.075541 78.726971 514900 3657.051185
0.265000 0.265074 3938.838470 54.594079 273.900469 53.533391 232.104108 555408 3657.051185
0.275000 0.275066 3805.113808 46.743390 234.293887 32.387303 336.790829 598684 3657.051185
0.285000 0.285066 3548.533399 57.757866 -25.175350 3.921170 340.238576 643228 3657.051185
0.295000 0.295058 3325.176482 56.680675 229.642338 -56.408847 164.637186 688036 3657.051185
