#Data file /home/DATA/sbrieden/Patchy_dr12_mocks/prerecon/original/Patchy-Mocks-DR12LOWZ-S-V5C-Portsmouth-mass_0060.dat
#Random file /home/DATA/sbrieden/Patchy_dr12_mocks/prerecon/original/Random-DR12LOWZ-S-V5C-x20.dat
#Number of data elements used: 101457
#Number of random elements used: 2007904
#Effective number of data elements weighted by wcol: 101457.000000
#Effective number of random elements weighted by wcol: 2007904.000000
#Effective number of data elements weighted by wcol*wsys: 101457.000000
#Effective number of random elements weighted by wcol*wsys: 2007904.000000
#Effective redshift value from data 0.331199
#Effective redshift value from randoms 0.330155
#Size of the Box 2500.000000 Mpc/h
#Area of the survey used 2501.000000 deg^2
#Value of alpha: 0.050663
#Normalization using data file
#Normalization using density
#Normalization 1.884174
#Shot noise factor 1.000000
#Shot noise value 3672.614850
#Type of Computation: FFT
#Number of grid cells: 512
#Type of Mass Assigment: TSC
#Type of Yamamoto: GridCenter
#Number of Interlacing steps: 2
#Grid Correction: yes
#Value of Om=0.310000
#Quadrupole as L2
#Octopole as L3
#Hexadecapole as L2L2
#k-centerbin	 k-eff	 Monopole-Pshotnoise	 Dipole	 Quadrupole	 Octopole	 Hexadecapole	 number of modes	 Pshotnoise
0.005000 0.007385 26641.633874 -1979.697990 21932.907205 4891.465662 -1848.059432 250 3672.614850
0.015000 0.016012 60308.281059 -663.092985 12056.914557 -7308.247740 -31600.098292 1852 3672.614850
0.025000 0.025646 55183.713277 1723.855470 19647.396677 4136.818322 690.894306 5020 3672.614850
0.035000 0.035469 49822.617448 1178.658210 8965.994376 -3808.833323 -29394.938126 9756 3672.614850
0.045000 0.045368 35894.164502 1842.627015 21399.083579 3463.363427 5080.103311 16108 3672.614850
0.055000 0.055314 31203.669979 210.809375 14604.766622 2386.547696 84.218970 24064 3672.614850
0.065000 0.065258 26546.933720 694.401771 6614.837458 -270.448138 595.914047 33396 3672.614850
0.075000 0.075209 23750.782276 379.442480 8479.053309 220.023471 311.453998 44596 3672.614850
0.085000 0.085175 21164.158086 377.444984 6155.665027 1332.835091 -1547.154187 57124 3672.614850
0.095000 0.095157 17492.006915 366.771761 5452.167471 -70.017596 2318.046156 71620 3672.614850
0.105000 0.105162 14925.823092 285.536874 4690.311128 146.540637 516.873434 87552 3672.614850
0.115000 0.115148 14028.318114 166.514348 4880.576902 340.077821 224.262238 104524 3672.614850
0.125000 0.125146 12804.667543 223.475454 4721.304673 293.238931 3074.180959 124228 3672.614850
0.135000 0.135146 11361.026031 68.849936 3755.281556 389.793089 3323.985656 144204 3672.614850
0.145000 0.145132 10455.691943 253.226110 2651.654520 76.858572 869.184398 166492 3672.614850
0.155000 0.155114 8963.872410 82.577084 2060.751544 190.213084 1217.277109 189964 3672.614850
0.165000 0.165102 8122.881832 190.077802 1586.074203 -61.608375 1183.484886 215640 3672.614850
0.175000 0.175105 7633.910487 59.577329 2052.360724 68.393599 1204.921286 242836 3672.614850
0.185000 0.185097 7092.216717 117.223836 1864.211460 71.173708 919.110836 270556 3672.614850
0.195000 0.195085 6526.506078 10.903675 1299.351001 159.676923 -175.554267 301084 3672.614850
0.205000 0.205080 6068.731264 140.543961 865.099241 -51.739439 49.519236 332628 3672.614850
0.215000 0.215092 5633.995846 78.266844 994.402098 6.239996 124.938696 367216 3672.614850
0.225000 0.225099 5240.914211 86.761468 746.975150 46.215730 242.615908 400444 3672.614850
0.235000 0.235081 4713.572106 50.966798 538.421939 40.901740 289.219444 436500 3672.614850
0.245000 0.245077 4462.003207 50.629414 633.255236 63.856733 236.313518 475900 3672.614850
0.255000 0.255082 4232.365690 73.190285 476.656445 9.343402 -23.274876 514900 3672.614850
0.265000 0.265074 3989.369920 46.789837 421.862445 -30.470360 149.670254 555408 3672.614850
0.275000 0.275066 3734.534303 73.777683 409.579137 58.950708 166.171906 598684 3672.614850
0.285000 0.285066 3404.767201 31.804331 142.001200 2.926582 161.083653 643228 3672.614850
0.295000 0.295058 3338.531873 57.318298 41.608684 27.760627 143.403542 688036 3672.614850
