#Data file /home/DATA/sbrieden/Patchy_dr12_mocks/prerecon/original/Patchy-Mocks-DR12CMASS-S-V6C-Portsmouth-mass_0072.dat
#Random file /home/DATA/sbrieden/Patchy_dr12_mocks/prerecon/original/Random-DR12CMASS-S-V6C-x20.dat
#Number of data elements used: 211647
#Number of random elements used: 4288842
#Effective number of data elements weighted by wcol: 211647.000000
#Effective number of random elements weighted by wcol: 4288842.000000
#Effective number of data elements weighted by wcol*wsys: 211647.000000
#Effective number of random elements weighted by wcol*wsys: 4288842.000000
#Effective redshift value from data 0.598679
#Effective redshift value from randoms 0.597190
#Size of the Box 3700.000000 Mpc/h
#Area of the survey used 2525.000000 deg^2
#Value of alpha: 0.049747
#Normalization using data file
#Normalization using density
#Normalization 4.036681
#Shot noise factor 1.000000
#Shot noise value 4984.039020
#Type of Computation: FFT
#Number of grid cells: 512
#Type of Mass Assigment: TSC
#Type of Yamamoto: GridCenter
#Number of Interlacing steps: 2
#Grid Correction: yes
#Value of Om=0.310000
#Quadrupole as L2
#Octopole as L3
#Hexadecapole as L2L2
#k-centerbin	 k-eff	 Monopole-Pshotnoise	 Dipole	 Quadrupole	 Octopole	 Hexadecapole	 number of modes	 Pshotnoise
0.005000 0.007485 76973.426104 2265.271459 42537.402960 14910.742645 37014.408044 846 4984.039020
0.015000 0.016072 64835.328638 1705.569124 15743.605206 1919.469029 -1658.641256 6012 4984.039020
0.025000 0.025646 54235.884406 1264.674346 21976.325185 1190.235430 -8484.199599 16172 4984.039020
0.035000 0.035469 44261.431126 780.240945 18742.732468 1516.310991 5849.149413 31764 4984.039020
0.045000 0.045378 35775.780907 419.101099 10292.819723 263.894757 -880.509960 52164 4984.039020
0.055000 0.055280 30839.631188 423.905004 12411.604118 263.629183 -8201.479080 77396 4984.039020
0.065000 0.065232 27430.972562 334.823659 7737.492186 710.208140 -299.041221 108936 4984.039020
0.075000 0.075229 22668.006042 298.109192 9246.199834 455.102699 1537.796754 144980 4984.039020
0.085000 0.085193 19808.236447 265.878883 6415.473961 110.890888 826.582059 184854 4984.039020
0.095000 0.095166 15984.859206 265.289684 5204.759657 254.139434 894.927044 232260 4984.039020
0.105000 0.105155 14253.320132 209.332975 5348.356574 -97.421909 -652.082480 282884 4984.039020
0.115000 0.115131 12888.774623 77.548791 4484.486246 322.543888 555.484898 339084 4984.039020
0.125000 0.125124 11771.905881 141.324993 3627.209929 30.208716 -67.631576 401864 4984.039020
0.135000 0.135125 10523.929142 82.816415 4137.678414 129.528190 1020.739187 468084 4984.039020
0.145000 0.145120 9367.581400 147.898144 2871.878695 108.359039 -171.773773 539940 4984.039020
0.155000 0.155118 8251.508211 77.880268 1868.558600 158.129448 75.079405 617324 4984.039020
0.165000 0.165105 7716.147006 85.449141 2157.741569 9.261552 1356.883982 697452 4984.039020
0.175000 0.175088 7234.303518 51.654589 1894.344931 44.898349 1175.707728 785846 4984.039020
0.185000 0.185089 6679.929138 91.439413 1542.064875 58.877927 581.313766 879528 4984.039020
0.195000 0.195093 6046.963694 80.818553 1065.964317 -38.283003 -150.994707 976596 4984.039020
0.205000 0.205084 5563.373240 52.625042 935.208711 99.926190 20.339840 1077212 4984.039020
0.215000 0.215076 5362.081455 68.353283 674.433270 -32.555728 351.350416 1186908 4984.039020
0.225000 0.225076 4894.659533 65.314507 834.898938 32.044623 56.597496 1299452 4984.039020
0.235000 0.235073 4485.150778 78.628372 702.316645 20.405780 508.691600 1417356 4984.039020
0.245000 0.245067 4231.676930 51.906873 496.914344 -27.185192 169.875456 1539600 4984.039020
0.255000 0.255064 3915.902874 61.722778 648.033420 66.734245 50.845689 1669820 4984.039020
0.265000 0.265061 3659.953403 55.098738 338.424253 2.297621 539.914081 1801086 4984.039020
0.275000 0.275060 3548.293956 45.313247 302.260393 7.207584 131.556496 1942244 4984.039020
0.285000 0.285062 3379.976339 58.806417 162.235231 17.334750 0.531042 2084796 4984.039020
0.295000 0.295057 3155.540176 56.526536 21.051031 15.784378 305.203815 2231868 4984.039020
