#Data file /home/DATA/sbrieden/Patchy_dr12_mocks/prerecon/original/Patchy-Mocks-DR12LOWZ-N-V5C-Portsmouth-mass_0043.dat
#Random file /home/DATA/sbrieden/Patchy_dr12_mocks/prerecon/original/Random-DR12LOWZ-N-V5C-x20.dat
#Number of data elements used: 232479
#Number of random elements used: 4685323
#Effective number of data elements weighted by wcol: 232479.000000
#Effective number of random elements weighted by wcol: 4685323.000000
#Effective number of data elements weighted by wcol*wsys: 232479.000000
#Effective number of random elements weighted by wcol*wsys: 4685323.000000
#Effective redshift value from data 0.329498
#Effective redshift value from randoms 0.330058
#Size of the Box 2500.000000 Mpc/h
#Area of the survey used 5826.000000 deg^2
#Value of alpha: 0.049540
#Normalization using data file
#Normalization using density
#Normalization 4.306226
#Shot noise factor 1.000000
#Shot noise value 3645.314589
#Type of Computation: FFT
#Number of grid cells: 512
#Type of Mass Assigment: TSC
#Type of Yamamoto: GridCenter
#Number of Interlacing steps: 2
#Grid Correction: yes
#Value of Om=0.310000
#Quadrupole as L2
#Octopole as L3
#Hexadecapole as L2L2
#k-centerbin	 k-eff	 Monopole-Pshotnoise	 Dipole	 Quadrupole	 Octopole	 Hexadecapole	 number of modes	 Pshotnoise
0.005000 0.007385 58392.656236 -17956.335341 6321.111352 -6887.517160 -35279.190077 250 3645.314589
0.015000 0.016012 77044.051701 6150.836670 8872.862213 -8686.019461 -17432.117712 1852 3645.314589
0.025000 0.025646 57795.521595 339.117856 13729.405401 5147.086292 7793.737821 5020 3645.314589
0.035000 0.035469 50536.938440 2583.902971 14364.958396 719.198581 6767.039264 9756 3645.314589
0.045000 0.045368 40930.096320 512.827045 16529.943102 1823.132685 8162.326025 16108 3645.314589
0.055000 0.055314 34082.994930 1066.915974 11759.420302 1614.242774 -678.954871 24064 3645.314589
0.065000 0.065258 29530.690948 382.239554 9280.291304 -139.124787 -749.700081 33396 3645.314589
0.075000 0.075209 25783.009911 548.417113 7945.021726 767.576561 1389.794470 44596 3645.314589
0.085000 0.085175 22105.569791 569.655755 7561.919460 828.979347 2320.969745 57124 3645.314589
0.095000 0.095157 18008.060184 341.831304 5445.508458 377.981692 780.248074 71620 3645.314589
0.105000 0.105162 15512.616652 311.571045 4013.043390 305.326679 1184.904923 87552 3645.314589
0.115000 0.115148 13416.500003 167.661319 4324.771224 -1.627597 1563.720862 104524 3645.314589
0.125000 0.125146 12952.567890 185.557936 3229.026652 131.272926 -629.060591 124228 3645.314589
0.135000 0.135146 11478.902921 202.191697 2984.901605 188.995527 820.601241 144204 3645.314589
0.145000 0.145132 10306.113015 195.035350 2603.809718 166.641476 379.497706 166492 3645.314589
0.155000 0.155114 9113.923027 158.211944 2258.324331 -73.505191 167.274578 189964 3645.314589
0.165000 0.165102 8231.719541 115.884298 1833.850170 117.571809 2.343519 215640 3645.314589
0.175000 0.175105 7528.616686 123.286709 1555.496180 58.708485 -387.185283 242836 3645.314589
0.185000 0.185097 6968.600320 74.804469 1919.542384 53.555071 200.424250 270556 3645.314589
0.195000 0.195085 6493.394819 68.440051 1346.383814 156.487735 402.943427 301084 3645.314589
0.205000 0.205080 5986.646756 73.334041 831.896726 52.933910 81.475789 332628 3645.314589
0.215000 0.215092 5456.184295 86.006330 737.805595 7.614391 343.541722 367216 3645.314589
0.225000 0.225099 5178.800691 76.551536 746.666397 4.740098 -58.191554 400444 3645.314589
0.235000 0.235081 4671.288732 72.494034 787.456026 4.657099 72.015948 436500 3645.314589
0.245000 0.245077 4444.109482 72.948738 653.108825 21.063246 -170.992144 475900 3645.314589
0.255000 0.255082 4126.100828 41.847414 432.303284 52.381738 108.305656 514900 3645.314589
0.265000 0.265074 3949.163609 52.162395 472.411377 -14.791800 158.141859 555408 3645.314589
0.275000 0.275066 3796.940995 32.630019 473.388934 106.043034 182.181650 598684 3645.314589
0.285000 0.285066 3459.989485 79.512129 363.639522 -15.061709 346.644476 643228 3645.314589
0.295000 0.295058 3222.903547 29.701601 133.588340 58.827634 449.714916 688036 3645.314589
