#Data file /home/DATA/sbrieden/Patchy_dr12_mocks/prerecon/original/Patchy-Mocks-DR12LOWZ-N-V5C-Portsmouth-mass_0054.dat
#Random file /home/DATA/sbrieden/Patchy_dr12_mocks/prerecon/original/Random-DR12LOWZ-N-V5C-x20.dat
#Number of data elements used: 233598
#Number of random elements used: 4685323
#Effective number of data elements weighted by wcol: 233598.000000
#Effective number of random elements weighted by wcol: 4685323.000000
#Effective number of data elements weighted by wcol*wsys: 233598.000000
#Effective number of random elements weighted by wcol*wsys: 4685323.000000
#Effective redshift value from data 0.329688
#Effective redshift value from randoms 0.330058
#Size of the Box 2500.000000 Mpc/h
#Area of the survey used 5826.000000 deg^2
#Value of alpha: 0.049872
#Normalization using data file
#Normalization using density
#Normalization 4.332057
#Shot noise factor 1.000000
#Shot noise value 3655.879248
#Type of Computation: FFT
#Number of grid cells: 512
#Type of Mass Assigment: TSC
#Type of Yamamoto: GridCenter
#Number of Interlacing steps: 2
#Grid Correction: yes
#Value of Om=0.310000
#Quadrupole as L2
#Octopole as L3
#Hexadecapole as L2L2
#k-centerbin	 k-eff	 Monopole-Pshotnoise	 Dipole	 Quadrupole	 Octopole	 Hexadecapole	 number of modes	 Pshotnoise
0.005000 0.007385 51408.523263 -2540.232513 27099.613680 -22712.966329 -42322.513563 250 3655.879248
0.015000 0.016012 65077.351550 1340.644788 15886.328288 6435.210142 9863.890191 1852 3655.879248
0.025000 0.025646 57740.221445 1307.886316 18318.731286 413.585176 -4529.188682 5020 3655.879248
0.035000 0.035469 49095.381195 913.800685 16710.040806 3858.082079 2439.782878 9756 3655.879248
0.045000 0.045368 39410.317655 1462.622125 13944.213147 -1312.776064 -2497.272559 16108 3655.879248
0.055000 0.055314 33424.999376 944.630062 12133.315734 2320.013443 -479.506324 24064 3655.879248
0.065000 0.065258 29044.782871 340.132466 11496.961384 1501.294952 4350.583927 33396 3655.879248
0.075000 0.075209 24980.478048 577.421482 8440.915789 582.958693 2343.021347 44596 3655.879248
0.085000 0.085175 21162.645502 529.545785 6219.201573 -90.249927 553.407459 57124 3655.879248
0.095000 0.095157 17519.075289 426.098109 5463.176151 553.978666 691.662213 71620 3655.879248
0.105000 0.105162 15235.545626 182.751208 4155.178081 177.041837 -1724.694171 87552 3655.879248
0.115000 0.115148 13792.003002 262.174111 4354.402151 -174.700295 585.550156 104524 3655.879248
0.125000 0.125146 12515.846652 133.964962 3799.909249 483.287587 465.509504 124228 3655.879248
0.135000 0.135146 11291.718419 258.016461 3179.431760 202.797439 583.621344 144204 3655.879248
0.145000 0.145132 10291.765303 109.659752 2488.797546 58.905553 1033.083199 166492 3655.879248
0.155000 0.155114 9252.511305 175.788623 2519.305053 34.956428 427.204756 189964 3655.879248
0.165000 0.165102 8052.406674 104.002674 2333.885742 205.943599 568.434014 215640 3655.879248
0.175000 0.175105 7686.011756 104.173833 1678.336225 -8.664662 234.157217 242836 3655.879248
0.185000 0.185097 6979.160976 82.532786 1366.039320 185.415605 151.496879 270556 3655.879248
0.195000 0.195085 6503.108849 68.971243 1259.948049 -2.378544 284.570138 301084 3655.879248
0.205000 0.205080 6187.066473 90.598681 1062.051548 69.619926 577.313525 332628 3655.879248
0.215000 0.215092 5620.186510 91.626149 651.547901 -5.527669 105.821507 367216 3655.879248
0.225000 0.225099 5027.983276 71.284111 712.049985 51.744020 238.388302 400444 3655.879248
0.235000 0.235081 4785.697314 64.426323 446.176416 -16.535871 -311.508197 436500 3655.879248
0.245000 0.245077 4486.306157 49.237787 441.986908 37.531469 13.696891 475900 3655.879248
0.255000 0.255082 4241.620500 46.110034 231.625008 83.539356 181.006110 514900 3655.879248
0.265000 0.265074 3966.022362 75.483473 261.152249 -39.238490 313.725710 555408 3655.879248
0.275000 0.275066 3644.131834 67.418454 290.840824 -5.108255 134.737331 598684 3655.879248
0.285000 0.285066 3498.128978 33.438153 176.475406 32.775664 59.640188 643228 3655.879248
0.295000 0.295058 3253.944251 65.680901 -86.589690 38.811102 125.849413 688036 3655.879248
