#Data file /home/DATA/sbrieden/Patchy_dr12_mocks/prerecon/original/Patchy-Mocks-DR12LOWZ-N-V5C-Portsmouth-mass_0028.dat
#Random file /home/DATA/sbrieden/Patchy_dr12_mocks/prerecon/original/Random-DR12LOWZ-N-V5C-x20.dat
#Number of data elements used: 234398
#Number of random elements used: 4685323
#Effective number of data elements weighted by wcol: 234398.000000
#Effective number of random elements weighted by wcol: 4685323.000000
#Effective number of data elements weighted by wcol*wsys: 234398.000000
#Effective number of random elements weighted by wcol*wsys: 4685323.000000
#Effective redshift value from data 0.330289
#Effective redshift value from randoms 0.330058
#Size of the Box 2500.000000 Mpc/h
#Area of the survey used 5826.000000 deg^2
#Value of alpha: 0.050055
#Normalization using data file
#Normalization using density
#Normalization 4.347195
#Shot noise factor 1.000000
#Shot noise value 3659.105229
#Type of Computation: FFT
#Number of grid cells: 512
#Type of Mass Assigment: TSC
#Type of Yamamoto: GridCenter
#Number of Interlacing steps: 2
#Grid Correction: yes
#Value of Om=0.310000
#Quadrupole as L2
#Octopole as L3
#Hexadecapole as L2L2
#k-centerbin	 k-eff	 Monopole-Pshotnoise	 Dipole	 Quadrupole	 Octopole	 Hexadecapole	 number of modes	 Pshotnoise
0.005000 0.007385 46287.274212 -13317.030242 5384.415912 -16495.907286 -26296.524961 250 3659.105229
0.015000 0.016012 77812.120541 -1545.965256 21183.804830 -4553.553387 -43362.704499 1852 3659.105229
0.025000 0.025646 69353.990858 3434.750730 14080.179556 518.376656 -19835.998017 5020 3659.105229
0.035000 0.035469 49753.135537 2358.987227 16379.574295 1162.454659 -393.913149 9756 3659.105229
0.045000 0.045368 34616.229167 1090.563419 11288.252842 2811.437483 5377.025015 16108 3659.105229
0.055000 0.055314 31954.276581 167.144320 11690.781524 -836.560286 2056.130592 24064 3659.105229
0.065000 0.065258 30579.808466 346.191100 12294.023120 1427.563628 -159.666167 33396 3659.105229
0.075000 0.075209 26424.960879 762.371680 8876.611124 319.791936 -1395.536424 44596 3659.105229
0.085000 0.085175 22222.796917 567.634408 8631.323038 198.658638 -1286.139927 57124 3659.105229
0.095000 0.095157 18033.288912 520.688197 7592.184132 930.226846 1588.682738 71620 3659.105229
0.105000 0.105162 15430.797791 151.614770 5522.668515 535.548319 2959.464281 87552 3659.105229
0.115000 0.115148 14194.221557 217.893824 3843.151847 130.826081 1517.888036 104524 3659.105229
0.125000 0.125146 13130.948128 265.860649 3224.639518 -71.173868 227.454334 124228 3659.105229
0.135000 0.135146 11569.154497 202.479556 3771.313613 303.216794 851.818660 144204 3659.105229
0.145000 0.145132 9909.512533 187.743139 3074.247518 11.643464 278.480813 166492 3659.105229
0.155000 0.155114 9107.607596 92.561825 2429.495418 109.286519 -101.963398 189964 3659.105229
0.165000 0.165102 8338.321588 145.286173 2656.927157 153.142606 95.198047 215640 3659.105229
0.175000 0.175105 7455.909079 59.384943 1778.991255 75.178609 715.024235 242836 3659.105229
0.185000 0.185097 6920.319115 109.063857 1376.103709 101.001477 -49.275858 270556 3659.105229
0.195000 0.195085 6380.244257 115.033202 1287.139926 39.936182 -47.593646 301084 3659.105229
0.205000 0.205080 5831.690899 51.644915 917.231410 28.956843 -197.299228 332628 3659.105229
0.215000 0.215092 5539.685506 64.499471 1032.444033 15.709999 224.698253 367216 3659.105229
0.225000 0.225099 5116.449925 88.199288 1014.690462 59.063802 334.224054 400444 3659.105229
0.235000 0.235081 4715.576680 65.910427 887.857054 24.172224 -74.960855 436500 3659.105229
0.245000 0.245077 4397.501803 54.270044 548.004163 30.589520 184.251262 475900 3659.105229
0.255000 0.255082 4218.145829 58.681079 402.099438 45.625777 170.929247 514900 3659.105229
0.265000 0.265074 3929.987957 41.666002 322.770608 60.178633 472.324185 555408 3659.105229
0.275000 0.275066 3744.797510 58.711934 110.414951 10.663438 528.257341 598684 3659.105229
0.285000 0.285066 3466.372948 65.442647 124.632396 -10.286330 177.969106 643228 3659.105229
0.295000 0.295058 3193.065744 47.429438 47.201503 15.059424 122.426466 688036 3659.105229
