#Data file /home/DATA/sbrieden/Patchy_dr12_mocks/prerecon/original/Patchy-Mocks-DR12LOWZ-S-V5C-Portsmouth-mass_0082.dat
#Random file /home/DATA/sbrieden/Patchy_dr12_mocks/prerecon/original/Random-DR12LOWZ-S-V5C-x20.dat
#Number of data elements used: 100583
#Number of random elements used: 2007904
#Effective number of data elements weighted by wcol: 100583.000000
#Effective number of random elements weighted by wcol: 2007904.000000
#Effective number of data elements weighted by wcol*wsys: 100583.000000
#Effective number of random elements weighted by wcol*wsys: 2007904.000000
#Effective redshift value from data 0.330044
#Effective redshift value from randoms 0.330155
#Size of the Box 2500.000000 Mpc/h
#Area of the survey used 2501.000000 deg^2
#Value of alpha: 0.050185
#Normalization using data file
#Normalization using density
#Normalization 1.867184
#Shot noise factor 1.000000
#Shot noise value 3665.069006
#Type of Computation: FFT
#Number of grid cells: 512
#Type of Mass Assigment: TSC
#Type of Yamamoto: GridCenter
#Number of Interlacing steps: 2
#Grid Correction: yes
#Value of Om=0.310000
#Quadrupole as L2
#Octopole as L3
#Hexadecapole as L2L2
#k-centerbin	 k-eff	 Monopole-Pshotnoise	 Dipole	 Quadrupole	 Octopole	 Hexadecapole	 number of modes	 Pshotnoise
0.005000 0.007385 53754.943893 -1983.880634 13610.263029 -16471.935544 -45333.629153 250 3665.069006
0.015000 0.016012 60728.903805 3985.222434 36618.819799 10402.975584 2817.822170 1852 3665.069006
0.025000 0.025646 58685.037045 -470.997378 24884.964096 4959.323943 -14308.693405 5020 3665.069006
0.035000 0.035469 53429.041172 1870.135449 19365.130498 960.004244 -1176.500890 9756 3665.069006
0.045000 0.045368 40874.812644 1187.711373 15056.121662 2414.174199 4132.284740 16108 3665.069006
0.055000 0.055314 30687.736322 108.067598 1076.308132 -34.147808 -125.204474 24064 3665.069006
0.065000 0.065258 33250.214338 651.217944 14719.177682 -901.652710 -7414.707442 33396 3665.069006
0.075000 0.075209 26049.333825 1063.771979 9472.691253 1821.325607 89.201901 44596 3665.069006
0.085000 0.085175 20058.706276 318.830360 5406.175312 301.511989 3471.843635 57124 3665.069006
0.095000 0.095157 17884.387575 314.709961 3335.276754 630.916250 242.440012 71620 3665.069006
0.105000 0.105162 15849.967091 304.002120 2557.851622 -172.006350 230.235276 87552 3665.069006
0.115000 0.115148 13685.459260 189.027643 3134.696220 76.572366 695.829139 104524 3665.069006
0.125000 0.125146 12755.908129 196.035512 3013.785887 250.730773 -357.885149 124228 3665.069006
0.135000 0.135146 11671.015183 159.224157 1936.117123 15.667626 -864.137602 144204 3665.069006
0.145000 0.145132 10209.630157 234.124493 2406.013365 -39.522606 -122.083272 166492 3665.069006
0.155000 0.155114 9497.125667 96.861848 2590.206352 -159.474597 -709.811506 189964 3665.069006
0.165000 0.165102 8302.010834 174.092791 2623.218820 304.458917 -411.429365 215640 3665.069006
0.175000 0.175105 7363.776989 112.525798 2218.200939 139.817873 329.493598 242836 3665.069006
0.185000 0.185097 6873.127521 85.687987 1458.501342 97.409677 601.696863 270556 3665.069006
0.195000 0.195085 6431.036116 58.219176 1024.368131 82.812957 574.469315 301084 3665.069006
0.205000 0.205080 6069.970327 77.796982 1005.301518 12.493623 738.760562 332628 3665.069006
0.215000 0.215092 5476.394967 93.103446 1100.283662 -106.508622 -393.894940 367216 3665.069006
0.225000 0.225099 5139.090897 55.499531 968.624435 150.821853 -222.846815 400444 3665.069006
0.235000 0.235081 4700.043071 96.019679 754.864699 -6.653050 244.435818 436500 3665.069006
0.245000 0.245077 4427.363581 25.695862 740.825611 52.490422 90.039120 475900 3665.069006
0.255000 0.255082 4265.492923 30.414796 -1.001720 107.292229 301.165304 514900 3665.069006
0.265000 0.265074 4076.368876 90.530797 288.383974 -83.643120 143.836601 555408 3665.069006
0.275000 0.275066 3634.586257 49.467752 134.048687 115.023815 312.280597 598684 3665.069006
0.285000 0.285066 3484.819598 60.508988 -59.711029 -54.690549 238.606141 643228 3665.069006
0.295000 0.295058 3305.309274 52.338023 186.254856 -36.115903 -101.036120 688036 3665.069006
