#Data file /home/DATA/sbrieden/Patchy_dr12_mocks/prerecon/original/Patchy-Mocks-DR12LOWZ-N-V5C-Portsmouth-mass_0091.dat
#Random file /home/DATA/sbrieden/Patchy_dr12_mocks/prerecon/original/Random-DR12LOWZ-N-V5C-x20.dat
#Number of data elements used: 235413
#Number of random elements used: 4685323
#Effective number of data elements weighted by wcol: 235413.000000
#Effective number of random elements weighted by wcol: 4685323.000000
#Effective number of data elements weighted by wcol*wsys: 235413.000000
#Effective number of random elements weighted by wcol*wsys: 4685323.000000
#Effective redshift value from data 0.329503
#Effective redshift value from randoms 0.330058
#Size of the Box 2500.000000 Mpc/h
#Area of the survey used 5826.000000 deg^2
#Value of alpha: 0.050186
#Normalization using data file
#Normalization using density
#Normalization 4.361597
#Shot noise factor 1.000000
#Shot noise value 3649.878755
#Type of Computation: FFT
#Number of grid cells: 512
#Type of Mass Assigment: TSC
#Type of Yamamoto: GridCenter
#Number of Interlacing steps: 2
#Grid Correction: yes
#Value of Om=0.310000
#Quadrupole as L2
#Octopole as L3
#Hexadecapole as L2L2
#k-centerbin	 k-eff	 Monopole-Pshotnoise	 Dipole	 Quadrupole	 Octopole	 Hexadecapole	 number of modes	 Pshotnoise
0.005000 0.007385 48512.622888 -2608.522616 -15963.611174 -4234.573470 -529.149302 250 3649.878755
0.015000 0.016012 60813.985055 43.509653 25618.785010 369.404396 8275.870806 1852 3649.878755
0.025000 0.025646 53319.700584 2201.711212 26929.553734 10717.865738 24880.611773 5020 3649.878755
0.035000 0.035469 46576.104962 784.854849 17433.858219 3303.048970 21070.416252 9756 3649.878755
0.045000 0.045368 41613.133637 1111.755848 14386.102929 1994.354019 13751.025544 16108 3649.878755
0.055000 0.055314 33394.102961 861.601510 14920.946828 613.222115 6741.848110 24064 3649.878755
0.065000 0.065258 29007.639613 695.482379 10217.348990 316.268453 -600.711525 33396 3649.878755
0.075000 0.075209 24479.578009 623.141994 12029.554608 1411.206811 2092.646509 44596 3649.878755
0.085000 0.085175 20562.845591 394.194851 6964.878143 268.239396 1342.494579 57124 3649.878755
0.095000 0.095157 18238.735581 235.154791 5960.062616 467.059026 1084.460658 71620 3649.878755
0.105000 0.105162 15523.651525 380.682575 5659.427395 371.886846 270.063387 87552 3649.878755
0.115000 0.115148 13466.572651 293.991502 4775.393764 125.863048 114.436655 104524 3649.878755
0.125000 0.125146 12601.453744 73.443765 4292.916868 164.599092 -290.925373 124228 3649.878755
0.135000 0.135146 11483.398984 165.554687 3503.238588 236.442591 -415.268257 144204 3649.878755
0.145000 0.145132 10182.793397 197.239183 3235.961338 92.490195 390.701250 166492 3649.878755
0.155000 0.155114 9103.507529 142.332221 2762.020036 208.844931 207.811082 189964 3649.878755
0.165000 0.165102 8102.882002 122.100741 2316.922398 80.176592 409.224620 215640 3649.878755
0.175000 0.175105 7473.016250 62.185018 2168.643203 41.961065 676.665944 242836 3649.878755
0.185000 0.185097 7099.041480 140.509046 1787.512625 66.887095 542.447341 270556 3649.878755
0.195000 0.195085 6524.106973 87.842885 1594.557151 96.650256 343.983403 301084 3649.878755
0.205000 0.205080 6028.752942 92.385652 1250.019262 26.490534 172.764933 332628 3649.878755
0.215000 0.215092 5564.624509 40.931921 1065.579110 65.544261 263.930371 367216 3649.878755
0.225000 0.225099 5141.934927 90.742198 1089.449770 -2.774567 160.016607 400444 3649.878755
0.235000 0.235081 4738.881381 74.435091 790.065028 49.489331 164.629014 436500 3649.878755
0.245000 0.245077 4443.525706 49.174152 669.754657 79.055519 361.068944 475900 3649.878755
0.255000 0.255082 4185.420379 60.105000 522.408436 17.260790 366.257831 514900 3649.878755
0.265000 0.265074 3905.297056 45.815575 420.045712 7.295122 167.002012 555408 3649.878755
0.275000 0.275066 3651.961566 75.429754 347.001023 3.039078 -87.233144 598684 3649.878755
0.285000 0.285066 3406.475106 43.139730 104.703496 18.915679 -0.926627 643228 3649.878755
0.295000 0.295058 3251.390784 43.862295 165.328850 41.892907 0.403880 688036 3649.878755
