#Data file /home/DATA/sbrieden/Patchy_dr12_mocks/prerecon/original/Patchy-Mocks-DR12LOWZ-N-V5C-Portsmouth-mass_0020.dat
#Random file /home/DATA/sbrieden/Patchy_dr12_mocks/prerecon/original/Random-DR12LOWZ-N-V5C-x20.dat
#Number of data elements used: 234477
#Number of random elements used: 4685323
#Effective number of data elements weighted by wcol: 234477.000000
#Effective number of random elements weighted by wcol: 4685323.000000
#Effective number of data elements weighted by wcol*wsys: 234477.000000
#Effective number of random elements weighted by wcol*wsys: 4685323.000000
#Effective redshift value from data 0.330256
#Effective redshift value from randoms 0.330058
#Size of the Box 2500.000000 Mpc/h
#Area of the survey used 5826.000000 deg^2
#Value of alpha: 0.050075
#Normalization using data file
#Normalization using density
#Normalization 4.348897
#Shot noise factor 1.000000
#Shot noise value 3659.188492
#Type of Computation: FFT
#Number of grid cells: 512
#Type of Mass Assigment: TSC
#Type of Yamamoto: GridCenter
#Number of Interlacing steps: 2
#Grid Correction: yes
#Value of Om=0.310000
#Quadrupole as L2
#Octopole as L3
#Hexadecapole as L2L2
#k-centerbin	 k-eff	 Monopole-Pshotnoise	 Dipole	 Quadrupole	 Octopole	 Hexadecapole	 number of modes	 Pshotnoise
0.005000 0.007385 26412.257438 -8553.453383 7365.149939 1371.992891 21931.123674 250 3659.188492
0.015000 0.016012 57126.279975 -273.687498 9726.813398 -1036.318603 -26060.070637 1852 3659.188492
0.025000 0.025646 50267.145339 1648.824656 13241.109490 -4693.806202 -22522.692486 5020 3659.188492
0.035000 0.035469 47326.915783 581.808572 9450.339456 2787.528346 -9493.145189 9756 3659.188492
0.045000 0.045368 38661.687828 882.777662 8193.154648 116.402697 -2228.776003 16108 3659.188492
0.055000 0.055314 34769.960191 1298.356762 10246.455023 440.743977 -3448.042204 24064 3659.188492
0.065000 0.065258 28272.022889 377.964554 9399.811874 771.540642 2143.019271 33396 3659.188492
0.075000 0.075209 24631.705506 372.346381 8735.246791 707.923077 873.548924 44596 3659.188492
0.085000 0.085175 21586.909739 448.016232 3351.008336 107.034899 -1926.327779 57124 3659.188492
0.095000 0.095157 18391.586704 416.296672 5427.948076 250.159124 -535.661836 71620 3659.188492
0.105000 0.105162 15475.776947 323.891759 4660.267855 328.603324 545.081762 87552 3659.188492
0.115000 0.115148 13905.471448 125.697272 4602.783378 108.003011 447.609147 104524 3659.188492
0.125000 0.125146 12949.384385 242.158257 4143.778552 144.988804 1435.922827 124228 3659.188492
0.135000 0.135146 11443.764375 217.593356 3443.690646 120.716942 326.986392 144204 3659.188492
0.145000 0.145132 10035.511665 189.791695 2973.982838 121.233413 -413.555269 166492 3659.188492
0.155000 0.155114 9159.937220 130.912042 2599.468785 170.499320 514.516833 189964 3659.188492
0.165000 0.165102 8179.776938 117.990913 2221.097079 31.504418 502.160225 215640 3659.188492
0.175000 0.175105 7796.569403 61.156894 2366.249447 153.941260 487.281384 242836 3659.188492
0.185000 0.185097 7005.461628 132.942613 1532.306232 93.721215 262.701855 270556 3659.188492
0.195000 0.195085 6599.632611 42.596371 1181.405503 56.820823 542.659813 301084 3659.188492
0.205000 0.205080 6147.288774 116.844065 1001.757425 -22.951285 -139.026053 332628 3659.188492
0.215000 0.215092 5567.005120 78.962614 1244.839002 26.256667 34.585794 367216 3659.188492
0.225000 0.225099 5155.990567 94.562528 966.206497 18.202988 -230.148310 400444 3659.188492
0.235000 0.235081 4820.370566 42.605672 971.308751 78.062730 226.536617 436500 3659.188492
0.245000 0.245077 4490.670194 78.760151 866.034800 9.555419 99.330739 475900 3659.188492
0.255000 0.255082 4216.855741 52.983578 451.969068 7.171537 70.239943 514900 3659.188492
0.265000 0.265074 3930.538244 42.356355 448.665709 100.058668 253.039869 555408 3659.188492
0.275000 0.275066 3718.475138 64.919373 296.686533 -38.332757 206.396853 598684 3659.188492
0.285000 0.285066 3498.405096 51.763691 395.397219 37.357246 113.274998 643228 3659.188492
0.295000 0.295058 3234.075399 46.095783 131.261820 56.029848 330.119427 688036 3659.188492
