#Data file /home/DATA/sbrieden/Patchy_dr12_mocks/prerecon/original/Patchy-Mocks-DR12LOWZ-S-V5C-Portsmouth-mass_0062.dat
#Random file /home/DATA/sbrieden/Patchy_dr12_mocks/prerecon/original/Random-DR12LOWZ-S-V5C-x20.dat
#Number of data elements used: 100989
#Number of random elements used: 2007904
#Effective number of data elements weighted by wcol: 100989.000000
#Effective number of random elements weighted by wcol: 2007904.000000
#Effective number of data elements weighted by wcol*wsys: 100989.000000
#Effective number of random elements weighted by wcol*wsys: 2007904.000000
#Effective redshift value from data 0.329179
#Effective redshift value from randoms 0.330155
#Size of the Box 2500.000000 Mpc/h
#Area of the survey used 2501.000000 deg^2
#Value of alpha: 0.050228
#Normalization using data file
#Normalization using density
#Normalization 1.870757
#Shot noise factor 1.000000
#Shot noise value 3650.931884
#Type of Computation: FFT
#Number of grid cells: 512
#Type of Mass Assigment: TSC
#Type of Yamamoto: GridCenter
#Number of Interlacing steps: 2
#Grid Correction: yes
#Value of Om=0.310000
#Quadrupole as L2
#Octopole as L3
#Hexadecapole as L2L2
#k-centerbin	 k-eff	 Monopole-Pshotnoise	 Dipole	 Quadrupole	 Octopole	 Hexadecapole	 number of modes	 Pshotnoise
0.005000 0.007385 57413.348427 -6847.736348 -13939.875295 4599.140891 -8480.105524 250 3650.931884
0.015000 0.016012 72729.264719 -2108.448511 -32490.114847 -10097.292160 7557.997066 1852 3650.931884
0.025000 0.025646 59788.801873 4101.920345 10606.035864 -13662.956584 -40907.084567 5020 3650.931884
0.035000 0.035469 49211.691998 386.192211 14643.351999 4238.879239 -23739.625230 9756 3650.931884
0.045000 0.045368 41775.578614 574.595637 11631.143646 2514.982695 10550.270281 16108 3650.931884
0.055000 0.055314 36310.941210 1490.857708 11563.819657 -1021.920140 -2200.448648 24064 3650.931884
0.065000 0.065258 30052.981598 602.885409 9596.188551 1042.724742 -1327.780486 33396 3650.931884
0.075000 0.075209 26006.134143 491.541891 11562.309787 964.782835 551.947644 44596 3650.931884
0.085000 0.085175 22129.067680 509.561083 6554.330670 774.821129 -648.769253 57124 3650.931884
0.095000 0.095157 18075.097751 466.728690 5945.747404 1.506470 948.925541 71620 3650.931884
0.105000 0.105162 15628.381048 312.098645 5221.513206 539.832677 -281.065898 87552 3650.931884
0.115000 0.115148 13756.555394 224.031236 3892.543279 368.211938 1095.690885 104524 3650.931884
0.125000 0.125146 12655.104414 181.685939 3754.268630 -72.037035 1328.470404 124228 3650.931884
0.135000 0.135146 11169.186065 137.409517 3433.929260 112.972116 211.865195 144204 3650.931884
0.145000 0.145132 10134.939826 223.196361 3582.148919 202.201755 1691.260980 166492 3650.931884
0.155000 0.155114 9274.800824 109.072064 2144.946159 163.169035 402.344490 189964 3650.931884
0.165000 0.165102 8103.705728 102.014425 1798.663564 15.729694 -121.825286 215640 3650.931884
0.175000 0.175105 7637.929881 103.988360 1760.235843 221.742167 -424.896708 242836 3650.931884
0.185000 0.185097 7124.545335 93.239424 1094.483785 -67.064581 444.540985 270556 3650.931884
0.195000 0.195085 6462.301119 121.238383 1550.980679 7.631858 -137.803035 301084 3650.931884
0.205000 0.205080 6040.316439 83.833429 1210.531301 60.539060 -1.123164 332628 3650.931884
0.215000 0.215092 5585.961828 40.197190 821.770050 125.581151 335.743937 367216 3650.931884
0.225000 0.225099 5187.799154 83.614708 520.589965 88.760610 450.157206 400444 3650.931884
0.235000 0.235081 4694.342954 55.724907 654.918205 -81.346362 396.465295 436500 3650.931884
0.245000 0.245077 4611.770109 62.799781 506.572394 40.509259 265.081770 475900 3650.931884
0.255000 0.255082 4287.764148 66.439076 551.487225 21.033142 199.474883 514900 3650.931884
0.265000 0.265074 3925.885400 69.127417 157.890624 35.433657 60.887417 555408 3650.931884
0.275000 0.275066 3731.166204 34.670328 120.970983 28.039167 127.488545 598684 3650.931884
0.285000 0.285066 3400.453661 61.359654 -15.008002 -37.681816 -123.260708 643228 3650.931884
0.295000 0.295058 3299.305044 61.457822 340.088781 5.459784 4.508628 688036 3650.931884
