#Data file /home/DATA/sbrieden/Patchy_dr12_mocks/prerecon/original/Patchy-Mocks-DR12CMASS-S-V6C-Portsmouth-mass_0060.dat
#Random file /home/DATA/sbrieden/Patchy_dr12_mocks/prerecon/original/Random-DR12CMASS-S-V6C-x20.dat
#Number of data elements used: 213318
#Number of random elements used: 4288842
#Effective number of data elements weighted by wcol: 213318.000000
#Effective number of random elements weighted by wcol: 4288842.000000
#Effective number of data elements weighted by wcol*wsys: 213318.000000
#Effective number of random elements weighted by wcol*wsys: 4288842.000000
#Effective redshift value from data 0.597516
#Effective redshift value from randoms 0.597190
#Size of the Box 3700.000000 Mpc/h
#Area of the survey used 2525.000000 deg^2
#Value of alpha: 0.049845
#Normalization using data file
#Normalization using density
#Normalization 4.057655
#Shot noise factor 1.000000
#Shot noise value 4936.405571
#Type of Computation: FFT
#Number of grid cells: 512
#Type of Mass Assigment: TSC
#Type of Yamamoto: GridCenter
#Number of Interlacing steps: 2
#Grid Correction: yes
#Value of Om=0.310000
#Quadrupole as L2
#Octopole as L3
#Hexadecapole as L2L2
#k-centerbin	 k-eff	 Monopole-Pshotnoise	 Dipole	 Quadrupole	 Octopole	 Hexadecapole	 number of modes	 Pshotnoise
0.005000 0.007485 51488.136776 -3931.029691 28712.508990 8299.444849 -8227.380885 846 4936.405571
0.015000 0.016072 68161.714652 2040.363193 16536.934348 -1354.591015 -12785.952605 6012 4936.405571
0.025000 0.025646 55357.933189 1722.067827 17467.333968 1654.428897 5926.259179 16172 4936.405571
0.035000 0.035469 43917.918694 356.328613 6482.582858 391.563608 2301.547274 31764 4936.405571
0.045000 0.045378 35761.586076 578.540446 9101.352045 -20.677214 -9549.311192 52164 4936.405571
0.055000 0.055280 30068.411132 457.239776 14485.078711 454.488991 4480.876438 77396 4936.405571
0.065000 0.065232 26536.145410 205.971510 12654.773354 1248.025063 78.047475 108936 4936.405571
0.075000 0.075229 23141.958807 408.056928 7991.287424 -185.194389 1412.819726 144980 4936.405571
0.085000 0.085193 20256.672278 244.599648 6277.616297 396.401513 -1019.220577 184854 4936.405571
0.095000 0.095166 16969.138879 198.246559 5576.834273 157.698897 318.286401 232260 4936.405571
0.105000 0.105155 14783.261258 233.352842 5790.433101 208.553798 124.435173 282884 4936.405571
0.115000 0.115131 12841.381089 114.279582 3846.955797 193.430698 549.274522 339084 4936.405571
0.125000 0.125124 11836.192094 121.109361 3454.275726 35.567123 696.800466 401864 4936.405571
0.135000 0.135125 10821.542711 137.886273 3451.171541 6.592437 -484.533343 468084 4936.405571
0.145000 0.145120 9719.236346 77.289044 3110.698829 114.995290 341.029776 539940 4936.405571
0.155000 0.155118 8600.603227 151.597898 2527.986918 140.092540 560.500953 617324 4936.405571
0.165000 0.165105 7478.548790 63.194474 2168.386395 124.986936 892.968720 697452 4936.405571
0.175000 0.175088 7138.144520 66.491105 1785.808331 -19.312304 399.402137 785846 4936.405571
0.185000 0.185089 6626.476802 91.139157 1442.256947 17.624765 -141.039666 879528 4936.405571
0.195000 0.195093 6235.042615 59.673919 1240.111647 13.009356 180.042198 976596 4936.405571
0.205000 0.205084 5773.518818 74.387606 1500.196393 35.451712 305.793524 1077212 4936.405571
0.215000 0.215076 5306.615729 70.571553 1513.201302 38.923538 472.391566 1186908 4936.405571
0.225000 0.225076 4871.394779 52.240840 985.431405 51.495776 114.962447 1299452 4936.405571
0.235000 0.235073 4683.071296 53.846804 616.376442 3.525979 171.765943 1417356 4936.405571
0.245000 0.245067 4483.235821 71.488885 579.362886 46.566064 142.132208 1539600 4936.405571
0.255000 0.255064 4033.549817 52.789931 593.473667 -21.985511 340.874417 1669820 4936.405571
0.265000 0.265061 3881.071057 59.132622 630.786769 50.667063 155.598343 1801086 4936.405571
0.275000 0.275060 3575.597723 57.803887 357.036119 17.233706 383.233514 1942244 4936.405571
0.285000 0.285062 3328.775869 56.390484 219.075435 8.353523 321.928136 2084796 4936.405571
0.295000 0.295057 3225.465956 46.665567 42.320093 16.613436 134.727886 2231868 4936.405571
