#Data file /home/DATA/sbrieden/Patchy_dr12_mocks/prerecon/original/Patchy-Mocks-DR12CMASS-N-V6C-Portsmouth-mass_0007.dat
#Random file /home/DATA/sbrieden/Patchy_dr12_mocks/prerecon/original/Random-DR12CMASS-N-V6C-x20.dat
#Number of data elements used: 587066
#Number of random elements used: 11797448
#Effective number of data elements weighted by wcol: 587066.000000
#Effective number of random elements weighted by wcol: 11797448.000000
#Effective number of data elements weighted by wcol*wsys: 587066.000000
#Effective number of random elements weighted by wcol*wsys: 11797448.000000
#Effective redshift value from data 0.598662
#Effective redshift value from randoms 0.597992
#Size of the Box 3700.000000 Mpc/h
#Area of the survey used 6851.000000 deg^2
#Value of alpha: 0.049964
#Normalization using data file
#Normalization using density
#Normalization 11.060060
#Shot noise factor 1.000000
#Shot noise value 4967.441805
#Type of Computation: FFT
#Number of grid cells: 512
#Type of Mass Assigment: TSC
#Type of Yamamoto: GridCenter
#Number of Interlacing steps: 2
#Grid Correction: yes
#Value of Om=0.310000
#Quadrupole as L2
#Octopole as L3
#Hexadecapole as L2L2
#k-centerbin	 k-eff	 Monopole-Pshotnoise	 Dipole	 Quadrupole	 Octopole	 Hexadecapole	 number of modes	 Pshotnoise
0.005000 0.007485 74787.901978 -3482.445779 26456.357627 15799.586124 8649.915667 846 4967.441805
0.015000 0.016072 67945.567778 1391.399480 35557.132859 5339.635602 16709.389726 6012 4967.441805
0.025000 0.025646 59429.752055 1400.886683 12755.290382 2451.940984 12750.438053 16172 4967.441805
0.035000 0.035469 46928.451015 496.415220 15322.287987 619.885537 36.751690 31764 4967.441805
0.045000 0.045378 37660.705181 1039.196509 13033.599657 301.967298 3529.911637 52164 4967.441805
0.055000 0.055280 31464.847509 437.626308 11670.511380 830.865569 254.437948 77396 4967.441805
0.065000 0.065232 27644.567918 282.630606 9665.308570 495.911285 4566.293851 108936 4967.441805
0.075000 0.075229 23721.646539 345.032139 8817.591495 395.592466 2701.207978 144980 4967.441805
0.085000 0.085193 19895.219456 243.927943 7899.109083 141.043803 -592.458417 184854 4967.441805
0.095000 0.095166 17273.028912 273.452093 7024.273539 283.228284 131.023798 232260 4967.441805
0.105000 0.105155 14753.197721 118.556556 5110.586656 237.389772 -11.508839 282884 4967.441805
0.115000 0.115131 13134.140577 161.346465 3794.874216 136.858606 -248.593955 339084 4967.441805
0.125000 0.125124 11855.318670 153.235856 3771.862089 -22.918546 41.040682 401864 4967.441805
0.135000 0.135125 10900.241597 71.471802 3447.540584 183.611418 392.127607 468084 4967.441805
0.145000 0.145120 9702.907538 133.093294 2581.048513 75.280396 -139.428266 539940 4967.441805
0.155000 0.155118 8634.422296 97.725097 2663.929542 70.132214 178.367606 617324 4967.441805
0.165000 0.165105 7830.940879 97.686566 2255.007853 24.500414 553.619192 697452 4967.441805
0.175000 0.175088 7366.682491 57.461673 2026.183242 79.051284 511.408281 785846 4967.441805
0.185000 0.185089 6648.451220 100.110122 1533.448666 73.266483 430.631124 879528 4967.441805
0.195000 0.195093 6174.184950 62.734112 1251.401814 10.299439 657.883223 976596 4967.441805
0.205000 0.205084 5713.972376 75.193245 1100.890081 1.395814 292.040738 1077212 4967.441805
0.215000 0.215076 5242.458580 61.847366 1237.270034 57.268575 -39.209103 1186908 4967.441805
0.225000 0.225076 4938.013448 58.976975 962.819459 14.931163 273.936539 1299452 4967.441805
0.235000 0.235073 4612.443775 60.624429 846.578771 28.885246 -31.112510 1417356 4967.441805
0.245000 0.245067 4321.937968 58.309855 577.220035 30.502077 183.195710 1539600 4967.441805
0.255000 0.255064 4042.189013 56.141685 544.716726 1.902661 233.168929 1669820 4967.441805
0.265000 0.265061 3741.663778 72.882459 464.609188 9.330601 130.517358 1801086 4967.441805
0.275000 0.275060 3540.179074 63.806178 382.679529 -16.061725 122.872290 1942244 4967.441805
0.285000 0.285062 3315.258806 47.372811 254.052643 30.417903 156.217071 2084796 4967.441805
0.295000 0.295057 3159.082629 46.119435 292.202977 18.196590 268.430763 2231868 4967.441805
