#Data file /home/DATA/sbrieden/Patchy_dr12_mocks/prerecon/original/Patchy-Mocks-DR12LOWZ-S-V5C-Portsmouth-mass_0031.dat
#Random file /home/DATA/sbrieden/Patchy_dr12_mocks/prerecon/original/Random-DR12LOWZ-S-V5C-x20.dat
#Number of data elements used: 100591
#Number of random elements used: 2007904
#Effective number of data elements weighted by wcol: 100591.000000
#Effective number of random elements weighted by wcol: 2007904.000000
#Effective number of data elements weighted by wcol*wsys: 100591.000000
#Effective number of random elements weighted by wcol*wsys: 2007904.000000
#Effective redshift value from data 0.329543
#Effective redshift value from randoms 0.330155
#Size of the Box 2500.000000 Mpc/h
#Area of the survey used 2501.000000 deg^2
#Value of alpha: 0.050070
#Normalization using data file
#Normalization using density
#Normalization 1.864759
#Shot noise factor 1.000000
#Shot noise value 3651.111942
#Type of Computation: FFT
#Number of grid cells: 512
#Type of Mass Assigment: TSC
#Type of Yamamoto: GridCenter
#Number of Interlacing steps: 2
#Grid Correction: yes
#Value of Om=0.310000
#Quadrupole as L2
#Octopole as L3
#Hexadecapole as L2L2
#k-centerbin	 k-eff	 Monopole-Pshotnoise	 Dipole	 Quadrupole	 Octopole	 Hexadecapole	 number of modes	 Pshotnoise
0.005000 0.007385 33805.280359 -6189.926992 -424.600518 -7548.924166 -9156.184128 250 3651.111942
0.015000 0.016012 62299.443361 -2936.905477 -15130.221843 -2985.104582 -10876.918565 1852 3651.111942
0.025000 0.025646 62832.208597 3701.767287 9255.135669 -4315.517499 -6013.063873 5020 3651.111942
0.035000 0.035469 47695.062625 1560.249537 16502.000032 1958.248933 -13433.733621 9756 3651.111942
0.045000 0.045368 38176.662721 599.419491 11758.427404 -759.373131 -5025.691069 16108 3651.111942
0.055000 0.055314 35427.677747 521.455758 21584.361982 4049.253863 8365.115272 24064 3651.111942
0.065000 0.065258 30577.519555 903.661770 11416.315614 1221.374054 7734.198787 33396 3651.111942
0.075000 0.075209 25725.607398 435.418698 7319.615975 -133.710234 3102.665232 44596 3651.111942
0.085000 0.085175 22164.847992 528.770229 5925.812945 393.413447 476.874620 57124 3651.111942
0.095000 0.095157 18423.430121 488.965643 8072.168125 -16.531579 -2068.150570 71620 3651.111942
0.105000 0.105162 15492.357806 384.486911 6218.993116 516.400210 702.250281 87552 3651.111942
0.115000 0.115148 13842.892293 105.791832 5741.127802 354.684437 1698.783943 104524 3651.111942
0.125000 0.125146 12334.379336 250.139272 5124.084433 313.507302 658.269554 124228 3651.111942
0.135000 0.135146 11232.045290 200.956092 4536.429166 240.523465 1541.671375 144204 3651.111942
0.145000 0.145132 9776.347616 120.975402 2995.874029 177.586783 1866.559478 166492 3651.111942
0.155000 0.155114 8924.405244 112.592708 1915.392131 328.805798 297.369939 189964 3651.111942
0.165000 0.165102 8178.269541 114.538842 2173.280615 -167.778717 648.209690 215640 3651.111942
0.175000 0.175105 7742.413974 120.030404 2575.165920 102.903494 950.413927 242836 3651.111942
0.185000 0.185097 6972.648052 78.217476 1236.828475 156.278035 247.974350 270556 3651.111942
0.195000 0.195085 6389.700698 92.321423 1030.416606 50.918005 -290.050921 301084 3651.111942
0.205000 0.205080 5971.024895 77.456747 792.589711 6.991816 272.584968 332628 3651.111942
0.215000 0.215092 5780.947920 56.404973 1089.896061 14.933837 -19.501684 367216 3651.111942
0.225000 0.225099 5159.306520 84.682041 829.877099 120.911404 566.418883 400444 3651.111942
0.235000 0.235081 4682.039255 63.402646 739.933070 -45.647130 125.511748 436500 3651.111942
0.245000 0.245077 4448.751622 63.664429 770.380188 78.592890 524.145177 475900 3651.111942
0.255000 0.255082 4169.815819 58.674594 114.291174 77.521216 111.497493 514900 3651.111942
0.265000 0.265074 4000.308017 48.246917 131.341828 -69.130404 53.501761 555408 3651.111942
0.275000 0.275066 3694.782329 68.432851 465.115120 -4.995003 35.555241 598684 3651.111942
0.285000 0.285066 3364.882962 58.493916 96.166288 97.347522 206.001415 643228 3651.111942
0.295000 0.295058 3315.859989 40.658327 40.223706 -53.094443 462.681605 688036 3651.111942
