#Data file /home/DATA/sbrieden/Patchy_dr12_mocks/prerecon/original/Patchy-Mocks-DR12LOWZ-N-V5C-Portsmouth-mass_0007.dat
#Random file /home/DATA/sbrieden/Patchy_dr12_mocks/prerecon/original/Random-DR12LOWZ-N-V5C-x20.dat
#Number of data elements used: 232062
#Number of random elements used: 4685323
#Effective number of data elements weighted by wcol: 232062.000000
#Effective number of random elements weighted by wcol: 4685323.000000
#Effective number of data elements weighted by wcol*wsys: 232062.000000
#Effective number of random elements weighted by wcol*wsys: 4685323.000000
#Effective redshift value from data 0.330455
#Effective redshift value from randoms 0.330058
#Size of the Box 2500.000000 Mpc/h
#Area of the survey used 5826.000000 deg^2
#Value of alpha: 0.049584
#Normalization using data file
#Normalization using density
#Normalization 4.305380
#Shot noise factor 1.000000
#Shot noise value 3660.159120
#Type of Computation: FFT
#Number of grid cells: 512
#Type of Mass Assigment: TSC
#Type of Yamamoto: GridCenter
#Number of Interlacing steps: 2
#Grid Correction: yes
#Value of Om=0.310000
#Quadrupole as L2
#Octopole as L3
#Hexadecapole as L2L2
#k-centerbin	 k-eff	 Monopole-Pshotnoise	 Dipole	 Quadrupole	 Octopole	 Hexadecapole	 number of modes	 Pshotnoise
0.005000 0.007385 50530.190496 -9586.987774 -9708.093033 -471.795385 21383.546983 250 3660.159120
0.015000 0.016012 77116.684579 980.724032 18807.837374 3304.260719 4534.942006 1852 3660.159120
0.025000 0.025646 66259.853931 2376.317858 19765.407944 5245.788533 -4771.741884 5020 3660.159120
0.035000 0.035469 53788.760983 1681.839863 21372.574014 3214.946249 16541.435622 9756 3660.159120
0.045000 0.045368 37741.595981 1462.310690 13352.726866 1641.345136 1901.662588 16108 3660.159120
0.055000 0.055314 34458.939738 390.508892 11681.418497 901.984586 3832.167773 24064 3660.159120
0.065000 0.065258 29497.312753 847.891273 10982.724757 404.816164 -1558.389316 33396 3660.159120
0.075000 0.075209 26015.008755 487.231670 9824.502570 183.561757 2013.460347 44596 3660.159120
0.085000 0.085175 22482.234537 584.373445 9371.502543 793.018844 1603.565058 57124 3660.159120
0.095000 0.095157 17768.506463 448.052377 6405.141158 1109.769852 2395.144544 71620 3660.159120
0.105000 0.105162 15382.454748 270.060369 3905.125002 -69.442072 5.477353 87552 3660.159120
0.115000 0.115148 13563.851614 145.685182 3149.848511 102.882462 -1263.936663 104524 3660.159120
0.125000 0.125146 12550.975840 141.388145 2629.675246 230.052731 -1376.829070 124228 3660.159120
0.135000 0.135146 11745.054538 154.728759 3538.285144 -19.022504 183.333080 144204 3660.159120
0.145000 0.145132 10409.355726 219.765866 3109.556298 165.508375 11.743560 166492 3660.159120
0.155000 0.155114 9115.184576 135.395662 2433.367614 55.408444 -703.552428 189964 3660.159120
0.165000 0.165102 8323.367431 133.914153 2068.586297 114.364328 -537.705250 215640 3660.159120
0.175000 0.175105 7445.900246 143.096835 1923.138825 41.498202 419.015589 242836 3660.159120
0.185000 0.185097 6937.249287 77.520288 1873.321540 23.968460 -638.200558 270556 3660.159120
0.195000 0.195085 6466.940504 74.382003 1762.607098 151.994434 159.281520 301084 3660.159120
0.205000 0.205080 5959.619621 73.213748 1257.729499 111.934959 300.595427 332628 3660.159120
0.215000 0.215092 5542.379633 71.493664 1042.695568 14.271047 530.080245 367216 3660.159120
0.225000 0.225099 5110.384254 85.597146 963.377160 75.174718 678.891858 400444 3660.159120
0.235000 0.235081 4771.966071 66.104318 687.931258 -41.343022 45.265967 436500 3660.159120
0.245000 0.245077 4431.559573 66.333996 660.590516 61.956978 254.914262 475900 3660.159120
0.255000 0.255082 4174.766226 54.219036 652.773853 29.049946 501.669032 514900 3660.159120
0.265000 0.265074 3986.627709 55.629011 179.977292 0.595319 244.551582 555408 3660.159120
0.275000 0.275066 3698.867786 51.838773 288.760193 46.423620 149.197337 598684 3660.159120
0.285000 0.285066 3522.949730 33.868180 -23.766971 40.098573 128.732962 643228 3660.159120
0.295000 0.295058 3342.588840 63.398200 88.020421 -37.012453 123.570408 688036 3660.159120
