#Data file /home/DATA/sbrieden/Patchy_dr12_mocks/prerecon/original/Patchy-Mocks-DR12CMASS-N-V6C-Portsmouth-mass_0037.dat
#Random file /home/DATA/sbrieden/Patchy_dr12_mocks/prerecon/original/Random-DR12CMASS-N-V6C-x20.dat
#Number of data elements used: 588302
#Number of random elements used: 11797448
#Effective number of data elements weighted by wcol: 588302.000000
#Effective number of random elements weighted by wcol: 11797448.000000
#Effective number of data elements weighted by wcol*wsys: 588302.000000
#Effective number of random elements weighted by wcol*wsys: 11797448.000000
#Effective redshift value from data 0.598105
#Effective redshift value from randoms 0.597992
#Size of the Box 3700.000000 Mpc/h
#Area of the survey used 6851.000000 deg^2
#Value of alpha: 0.049901
#Normalization using data file
#Normalization using density
#Normalization 11.062126
#Shot noise factor 1.000000
#Shot noise value 4945.692823
#Type of Computation: FFT
#Number of grid cells: 512
#Type of Mass Assigment: TSC
#Type of Yamamoto: GridCenter
#Number of Interlacing steps: 2
#Grid Correction: yes
#Value of Om=0.310000
#Quadrupole as L2
#Octopole as L3
#Hexadecapole as L2L2
#k-centerbin	 k-eff	 Monopole-Pshotnoise	 Dipole	 Quadrupole	 Octopole	 Hexadecapole	 number of modes	 Pshotnoise
0.005000 0.007485 72324.268427 -7000.352131 -3548.912462 6058.362520 6139.226657 846 4945.692823
0.015000 0.016072 78784.763237 2068.741396 8849.131145 -1324.726964 2579.458358 6012 4945.692823
0.025000 0.025646 60694.064238 1347.804304 24405.054026 493.449910 -6296.480916 16172 4945.692823
0.035000 0.035469 49418.493393 987.171246 18989.761096 1307.745451 -2042.396268 31764 4945.692823
0.045000 0.045378 39880.564209 963.113881 17900.350593 1383.601595 5321.174224 52164 4945.692823
0.055000 0.055280 31221.211284 451.597722 12360.184796 500.920721 207.998783 77396 4945.692823
0.065000 0.065232 27568.949320 330.372503 9459.162058 334.132842 500.926966 108936 4945.692823
0.075000 0.075229 24424.768296 293.662277 8300.290658 469.031675 689.094223 144980 4945.692823
0.085000 0.085193 19935.691580 394.029782 8745.738029 259.192924 2741.214174 184854 4945.692823
0.095000 0.095166 16709.440818 187.982665 5970.261980 260.855759 -235.680941 232260 4945.692823
0.105000 0.105155 14244.518339 177.598334 4198.247525 187.630137 74.366768 282884 4945.692823
0.115000 0.115131 12913.740842 109.353409 4124.501766 48.634342 -141.171307 339084 4945.692823
0.125000 0.125124 11970.888670 70.509038 3721.350107 160.846010 866.750239 401864 4945.692823
0.135000 0.135125 11145.962463 164.456544 3912.163964 4.440932 -35.971013 468084 4945.692823
0.145000 0.145120 9764.791359 99.116286 3331.497336 189.992408 657.045090 539940 4945.692823
0.155000 0.155118 8716.965901 113.639766 2520.971467 70.305484 462.336849 617324 4945.692823
0.165000 0.165105 7836.566981 94.227823 2219.312479 32.722043 238.297069 697452 4945.692823
0.175000 0.175088 7171.778941 82.283364 2095.776246 31.116241 177.607398 785846 4945.692823
0.185000 0.185089 6704.408686 56.849639 1649.336471 100.817919 33.959732 879528 4945.692823
0.195000 0.195093 6182.017932 73.480890 1299.417527 22.635157 394.645271 976596 4945.692823
0.205000 0.205084 5652.726673 66.102322 1220.186909 55.253369 460.364465 1077212 4945.692823
0.215000 0.215076 5296.991882 83.135166 1040.908647 -5.198351 129.161682 1186908 4945.692823
0.225000 0.225076 4858.169161 57.815586 974.676698 13.810480 352.243703 1299452 4945.692823
0.235000 0.235073 4609.689278 56.837417 802.880393 52.320457 229.834701 1417356 4945.692823
0.245000 0.245067 4330.053592 60.314395 571.375876 5.977457 76.468065 1539600 4945.692823
0.255000 0.255064 3960.807050 63.578258 551.572035 11.542628 153.006796 1669820 4945.692823
0.265000 0.265061 3719.213264 55.136993 484.728273 20.088089 433.612964 1801086 4945.692823
0.275000 0.275060 3572.473149 57.079260 383.761517 8.930616 259.626076 1942244 4945.692823
0.285000 0.285062 3389.263684 57.331615 270.196772 2.616369 266.947270 2084796 4945.692823
0.295000 0.295057 3138.873342 53.294676 175.003329 27.994988 212.544772 2231868 4945.692823
