#Data file /home/DATA/sbrieden/Patchy_dr12_mocks/prerecon/original/Patchy-Mocks-DR12CMASS-S-V6C-Portsmouth-mass_0044.dat
#Random file /home/DATA/sbrieden/Patchy_dr12_mocks/prerecon/original/Random-DR12CMASS-S-V6C-x20.dat
#Number of data elements used: 215940
#Number of random elements used: 4288842
#Effective number of data elements weighted by wcol: 215940.000000
#Effective number of random elements weighted by wcol: 4288842.000000
#Effective number of data elements weighted by wcol*wsys: 215940.000000
#Effective number of random elements weighted by wcol*wsys: 4288842.000000
#Effective redshift value from data 0.597473
#Effective redshift value from randoms 0.597190
#Size of the Box 3700.000000 Mpc/h
#Area of the survey used 2525.000000 deg^2
#Value of alpha: 0.050422
#Normalization using data file
#Normalization using density
#Normalization 4.104640
#Shot noise factor 1.000000
#Shot noise value 4939.086358
#Type of Computation: FFT
#Number of grid cells: 512
#Type of Mass Assigment: TSC
#Type of Yamamoto: GridCenter
#Number of Interlacing steps: 2
#Grid Correction: yes
#Value of Om=0.310000
#Quadrupole as L2
#Octopole as L3
#Hexadecapole as L2L2
#k-centerbin	 k-eff	 Monopole-Pshotnoise	 Dipole	 Quadrupole	 Octopole	 Hexadecapole	 number of modes	 Pshotnoise
0.005000 0.007485 33090.006956 -4035.773439 -3289.441333 -6909.518217 -13382.179690 846 4939.086358
0.015000 0.016072 45138.830746 -1016.595003 13663.214817 3540.447936 -5947.744615 6012 4939.086358
0.025000 0.025646 50826.012299 598.138616 1418.280957 -2480.237162 -170.342680 16172 4939.086358
0.035000 0.035469 45951.592837 688.378691 20387.162501 788.134038 3680.801006 31764 4939.086358
0.045000 0.045378 35159.595096 645.496429 15857.188325 1886.709806 275.163192 52164 4939.086358
0.055000 0.055280 33437.745989 232.613448 11491.415853 295.376418 -5512.635209 77396 4939.086358
0.065000 0.065232 25882.883513 557.723369 11288.460473 660.546764 5905.461797 108936 4939.086358
0.075000 0.075229 24046.652588 300.078444 8185.345032 60.949219 -1605.098091 144980 4939.086358
0.085000 0.085193 19180.250333 308.168424 6701.050984 379.409613 1377.155280 184854 4939.086358
0.095000 0.095166 16599.055234 248.980169 4655.705189 -87.608130 -1160.156664 232260 4939.086358
0.105000 0.105155 14229.769159 174.627431 4606.272795 299.123513 271.166306 282884 4939.086358
0.115000 0.115131 12725.420875 99.828587 4835.851948 100.963327 164.540715 339084 4939.086358
0.125000 0.125124 12096.241613 126.416088 4020.665581 145.627416 846.837723 401864 4939.086358
0.135000 0.135125 10614.350243 96.220692 3454.957192 164.197155 1429.487824 468084 4939.086358
0.145000 0.145120 9601.849601 128.769974 2564.999916 39.493851 539.119667 539940 4939.086358
0.155000 0.155118 8320.188448 125.790626 2398.936943 60.025836 681.090025 617324 4939.086358
0.165000 0.165105 7460.629698 66.639461 1855.264175 60.608690 331.458291 697452 4939.086358
0.175000 0.175088 7146.541791 75.951947 1747.781804 23.292881 456.320296 785846 4939.086358
0.185000 0.185089 6728.244051 51.634988 1701.532913 56.924119 452.552110 879528 4939.086358
0.195000 0.195093 6230.093889 72.343584 912.279060 65.898617 -86.635937 976596 4939.086358
0.205000 0.205084 5726.171146 94.096597 1364.816950 4.727545 754.038974 1077212 4939.086358
0.215000 0.215076 5063.104080 61.331841 1362.272448 27.911403 210.460209 1186908 4939.086358
0.225000 0.225076 4860.008429 58.849178 684.611205 12.641658 253.704309 1299452 4939.086358
0.235000 0.235073 4551.441033 51.691346 763.543891 43.548334 206.942765 1417356 4939.086358
0.245000 0.245067 4352.507069 60.741252 462.327065 -4.395273 163.478413 1539600 4939.086358
0.255000 0.255064 4003.907996 64.940258 245.773363 -8.802873 -274.068229 1669820 4939.086358
0.265000 0.265061 3929.829679 40.950224 247.457991 70.489356 448.535088 1801086 4939.086358
0.275000 0.275060 3635.276786 60.928849 116.564121 -2.277951 357.716444 1942244 4939.086358
0.285000 0.285062 3448.122306 58.352725 162.024336 -18.398589 170.686328 2084796 4939.086358
0.295000 0.295057 3251.583637 55.984994 206.396077 32.092579 90.122391 2231868 4939.086358
