#Data file /home/DATA/sbrieden/Patchy_dr12_mocks/prerecon/original/Patchy-Mocks-DR12LOWZ-N-V5C-Portsmouth-mass_0072.dat
#Random file /home/DATA/sbrieden/Patchy_dr12_mocks/prerecon/original/Random-DR12LOWZ-N-V5C-x20.dat
#Number of data elements used: 231923
#Number of random elements used: 4685323
#Effective number of data elements weighted by wcol: 231923.000000
#Effective number of random elements weighted by wcol: 4685323.000000
#Effective number of data elements weighted by wcol*wsys: 231923.000000
#Effective number of random elements weighted by wcol*wsys: 4685323.000000
#Effective redshift value from data 0.329681
#Effective redshift value from randoms 0.330058
#Size of the Box 2500.000000 Mpc/h
#Area of the survey used 5826.000000 deg^2
#Value of alpha: 0.049449
#Normalization using data file
#Normalization using density
#Normalization 4.297411
#Shot noise factor 1.000000
#Shot noise value 3647.933639
#Type of Computation: FFT
#Number of grid cells: 512
#Type of Mass Assigment: TSC
#Type of Yamamoto: GridCenter
#Number of Interlacing steps: 2
#Grid Correction: yes
#Value of Om=0.310000
#Quadrupole as L2
#Octopole as L3
#Hexadecapole as L2L2
#k-centerbin	 k-eff	 Monopole-Pshotnoise	 Dipole	 Quadrupole	 Octopole	 Hexadecapole	 number of modes	 Pshotnoise
0.005000 0.007385 36095.689698 -4938.163306 6603.157806 19303.416736 38040.181005 250 3647.933639
0.015000 0.016012 65998.050669 1670.487561 24339.137597 -4928.323761 -29601.139151 1852 3647.933639
0.025000 0.025646 55797.397180 -182.430860 10192.736660 1623.043895 -13158.493673 5020 3647.933639
0.035000 0.035469 50323.675069 1861.265159 15667.425820 1595.594920 -8422.627603 9756 3647.933639
0.045000 0.045368 40787.887244 800.500474 11327.814407 1356.932788 1195.478615 16108 3647.933639
0.055000 0.055314 34008.002935 838.737976 9885.538287 583.882435 4642.633793 24064 3647.933639
0.065000 0.065258 30164.893218 857.079687 10516.068358 -559.453225 -3807.628335 33396 3647.933639
0.075000 0.075209 25828.654494 365.921927 8564.142120 1078.796001 222.879296 44596 3647.933639
0.085000 0.085175 21838.693838 631.507406 8741.212234 398.477138 -659.500960 57124 3647.933639
0.095000 0.095157 18228.437121 471.767282 6288.962199 708.391862 2018.356868 71620 3647.933639
0.105000 0.105162 15355.582567 281.528961 4519.647197 260.018750 1702.285808 87552 3647.933639
0.115000 0.115148 14063.824469 168.197071 3876.615377 -36.490524 697.877152 104524 3647.933639
0.125000 0.125146 12472.543506 164.196476 3186.692806 326.294055 383.623579 124228 3647.933639
0.135000 0.135146 11520.276037 191.629418 3060.121081 177.729171 259.939350 144204 3647.933639
0.145000 0.145132 10036.617777 199.590063 2147.480916 120.072534 432.995672 166492 3647.933639
0.155000 0.155114 9089.938873 125.649634 2442.942057 53.574777 838.530626 189964 3647.933639
0.165000 0.165102 8394.998034 102.601666 2321.822474 47.996207 526.478554 215640 3647.933639
0.175000 0.175105 7707.125795 86.966316 1389.350129 199.376483 474.291428 242836 3647.933639
0.185000 0.185097 7047.133928 118.136975 1220.358851 1.350313 521.077619 270556 3647.933639
0.195000 0.195085 6423.550651 92.238166 1511.793603 79.661779 584.359186 301084 3647.933639
0.205000 0.205080 5913.737190 72.074478 1238.086583 26.127919 553.237531 332628 3647.933639
0.215000 0.215092 5618.309698 68.353140 1227.397991 -12.511235 477.778954 367216 3647.933639
0.225000 0.225099 5263.051757 78.143368 1139.259631 146.513193 648.562382 400444 3647.933639
0.235000 0.235081 4780.037889 71.015214 728.568268 -28.445328 448.576759 436500 3647.933639
0.245000 0.245077 4523.850400 40.957403 719.741621 48.762099 381.797090 475900 3647.933639
0.255000 0.255082 4284.600566 60.954605 431.412613 1.674352 165.917996 514900 3647.933639
0.265000 0.265074 4019.443104 60.844890 279.984856 53.333290 161.936416 555408 3647.933639
0.275000 0.275066 3678.105788 79.394114 275.259595 28.039634 280.096501 598684 3647.933639
0.285000 0.285066 3495.880854 27.206059 157.933019 5.158001 359.923758 643228 3647.933639
0.295000 0.295058 3285.556772 60.339017 160.310269 3.378860 172.542063 688036 3647.933639
