#Data file /home/DATA/sbrieden/Patchy_dr12_mocks/prerecon/original/Patchy-Mocks-DR12CMASS-S-V6C-Portsmouth-mass_0035.dat
#Random file /home/DATA/sbrieden/Patchy_dr12_mocks/prerecon/original/Random-DR12CMASS-S-V6C-x20.dat
#Number of data elements used: 214565
#Number of random elements used: 4288842
#Effective number of data elements weighted by wcol: 214565.000000
#Effective number of random elements weighted by wcol: 4288842.000000
#Effective number of data elements weighted by wcol*wsys: 214565.000000
#Effective number of random elements weighted by wcol*wsys: 4288842.000000
#Effective redshift value from data 0.597409
#Effective redshift value from randoms 0.597190
#Size of the Box 3700.000000 Mpc/h
#Area of the survey used 2525.000000 deg^2
#Value of alpha: 0.050042
#Normalization using data file
#Normalization using density
#Normalization 4.074615
#Shot noise factor 1.000000
#Shot noise value 4934.067888
#Type of Computation: FFT
#Number of grid cells: 512
#Type of Mass Assigment: TSC
#Type of Yamamoto: GridCenter
#Number of Interlacing steps: 2
#Grid Correction: yes
#Value of Om=0.310000
#Quadrupole as L2
#Octopole as L3
#Hexadecapole as L2L2
#k-centerbin	 k-eff	 Monopole-Pshotnoise	 Dipole	 Quadrupole	 Octopole	 Hexadecapole	 number of modes	 Pshotnoise
0.005000 0.007485 46310.191464 -1367.902968 9888.269070 -1177.592230 -12086.927746 846 4934.067888
0.015000 0.016072 56421.748480 -2148.536335 -14416.852255 -3028.134338 -21751.537619 6012 4934.067888
0.025000 0.025646 61909.928679 1273.306363 17856.882399 -1183.061484 -19789.828619 16172 4934.067888
0.035000 0.035469 46510.386415 1254.658473 19709.900652 953.818342 -2563.848808 31764 4934.067888
0.045000 0.045378 35907.977812 667.655041 15598.087389 1146.678663 1576.989857 52164 4934.067888
0.055000 0.055280 30332.385024 616.193061 11635.989185 676.210347 2902.230220 77396 4934.067888
0.065000 0.065232 26279.132472 154.834822 7955.396426 341.608415 5935.460129 108936 4934.067888
0.075000 0.075229 24239.034513 238.567162 5534.515792 79.082083 -3928.535990 144980 4934.067888
0.085000 0.085193 20196.968747 380.265288 6639.802113 282.351034 1068.743990 184854 4934.067888
0.095000 0.095166 16483.102078 219.444360 6828.155615 120.098714 312.021452 232260 4934.067888
0.105000 0.105155 14043.007346 198.277088 4379.771027 268.720121 45.154571 282884 4934.067888
0.115000 0.115131 13047.026433 118.334465 4266.933242 -36.091381 1075.683509 339084 4934.067888
0.125000 0.125124 12075.897545 95.626437 3373.843043 292.200374 -215.266918 401864 4934.067888
0.135000 0.135125 10418.160253 132.739838 2679.646128 53.505221 833.034484 468084 4934.067888
0.145000 0.145120 9645.167802 99.632721 3059.948152 125.828819 1056.908200 539940 4934.067888
0.155000 0.155118 8565.799854 98.804133 2320.577816 15.410113 314.129100 617324 4934.067888
0.165000 0.165105 7761.058784 78.432686 2411.872828 69.891252 44.491011 697452 4934.067888
0.175000 0.175088 7114.538544 108.912958 1892.664983 -17.656623 -252.099626 785846 4934.067888
0.185000 0.185089 6665.669685 49.620670 1585.378463 101.183709 514.457977 879528 4934.067888
0.195000 0.195093 6176.321861 81.197737 1290.374980 55.589663 673.385955 976596 4934.067888
0.205000 0.205084 5602.280915 72.217594 1319.922596 10.494948 748.996343 1077212 4934.067888
0.215000 0.215076 5240.859305 51.447894 837.950840 60.145636 195.486795 1186908 4934.067888
0.225000 0.225076 4821.633529 79.636967 955.946102 -27.515311 272.891299 1299452 4934.067888
0.235000 0.235073 4532.779404 46.501606 785.364574 56.514233 198.320570 1417356 4934.067888
0.245000 0.245067 4349.176148 67.612457 701.328401 -16.902791 365.996366 1539600 4934.067888
0.255000 0.255064 4091.306569 45.608930 611.053969 57.651481 414.326706 1669820 4934.067888
0.265000 0.265061 3837.484012 60.748922 425.427827 -12.478559 127.200890 1801086 4934.067888
0.275000 0.275060 3654.042721 53.861633 277.005941 38.714536 95.409744 1942244 4934.067888
0.285000 0.285062 3372.619805 72.960622 237.449011 -16.419265 119.838277 2084796 4934.067888
0.295000 0.295057 3147.153388 46.979342 266.324865 24.992359 286.008414 2231868 4934.067888
