#Data file /home/DATA/sbrieden/Patchy_dr12_mocks/prerecon/original/Patchy-Mocks-DR12LOWZ-S-V5C-Portsmouth-mass_0074.dat
#Random file /home/DATA/sbrieden/Patchy_dr12_mocks/prerecon/original/Random-DR12LOWZ-S-V5C-x20.dat
#Number of data elements used: 102730
#Number of random elements used: 2007904
#Effective number of data elements weighted by wcol: 102730.000000
#Effective number of random elements weighted by wcol: 2007904.000000
#Effective number of data elements weighted by wcol*wsys: 102730.000000
#Effective number of random elements weighted by wcol*wsys: 2007904.000000
#Effective redshift value from data 0.330314
#Effective redshift value from randoms 0.330155
#Size of the Box 2500.000000 Mpc/h
#Area of the survey used 2501.000000 deg^2
#Value of alpha: 0.051179
#Normalization using data file
#Normalization using density
#Normalization 1.904687
#Shot noise factor 1.000000
#Shot noise value 3664.870268
#Type of Computation: FFT
#Number of grid cells: 512
#Type of Mass Assigment: TSC
#Type of Yamamoto: GridCenter
#Number of Interlacing steps: 2
#Grid Correction: yes
#Value of Om=0.310000
#Quadrupole as L2
#Octopole as L3
#Hexadecapole as L2L2
#k-centerbin	 k-eff	 Monopole-Pshotnoise	 Dipole	 Quadrupole	 Octopole	 Hexadecapole	 number of modes	 Pshotnoise
0.005000 0.007385 42846.184761 -7072.140048 -28219.239930 -20432.744303 -12791.033250 250 3664.870268
0.015000 0.016012 58791.448394 -3990.394871 2206.837200 -5863.262095 -26773.717896 1852 3664.870268
0.025000 0.025646 61424.943766 1451.501926 -10379.093656 -6725.899375 -21292.810403 5020 3664.870268
0.035000 0.035469 45142.482991 2906.956968 16037.492590 143.396078 956.363815 9756 3664.870268
0.045000 0.045368 40387.609862 160.440979 18719.084339 1041.718411 3374.801388 16108 3664.870268
0.055000 0.055314 34624.093050 1596.638731 16418.902099 1683.259424 2801.703405 24064 3664.870268
0.065000 0.065258 29557.175841 122.670529 15940.500840 2251.472393 7464.685134 33396 3664.870268
0.075000 0.075209 25178.405633 698.586711 8792.264087 663.604032 2308.829415 44596 3664.870268
0.085000 0.085175 21713.383262 496.388297 7205.623408 746.826440 -511.318958 57124 3664.870268
0.095000 0.095157 17783.956565 351.020184 4671.995255 -145.764418 306.466646 71620 3664.870268
0.105000 0.105162 16330.801774 187.836581 6478.977733 11.566139 -338.925264 87552 3664.870268
0.115000 0.115148 14450.151681 312.668450 6860.515096 680.275057 1239.739998 104524 3664.870268
0.125000 0.125146 12970.983558 198.120441 4715.614190 220.442809 1530.932662 124228 3664.870268
0.135000 0.135146 11634.210150 173.171830 3365.731588 24.612991 384.152939 144204 3664.870268
0.145000 0.145132 10492.444218 145.369678 3373.216222 268.510469 -583.104701 166492 3664.870268
0.155000 0.155114 9299.552592 122.681265 1835.055383 38.656473 59.086852 189964 3664.870268
0.165000 0.165102 8478.560085 174.338062 2253.198874 106.117447 -356.694853 215640 3664.870268
0.175000 0.175105 7838.893548 62.317584 1999.105535 130.384524 535.681261 242836 3664.870268
0.185000 0.185097 7188.254076 163.767353 2526.109410 -132.486379 708.995317 270556 3664.870268
0.195000 0.195085 6643.910103 68.859387 1623.762494 303.230328 248.384148 301084 3664.870268
0.205000 0.205080 5939.622826 95.455794 1429.418613 -108.671564 476.864711 332628 3664.870268
0.215000 0.215092 5549.939948 57.287217 1118.395123 162.459585 -25.345258 367216 3664.870268
0.225000 0.225099 5179.982890 94.786163 1198.469154 -25.187423 208.464338 400444 3664.870268
0.235000 0.235081 4809.778052 69.847003 751.645954 113.977847 -95.089636 436500 3664.870268
0.245000 0.245077 4352.688787 53.640868 697.708434 25.140749 305.598302 475900 3664.870268
0.255000 0.255082 4238.069315 41.447811 533.665015 -23.063082 40.639133 514900 3664.870268
0.265000 0.265074 3947.953392 74.587848 392.386310 65.254817 11.554677 555408 3664.870268
0.275000 0.275066 3646.995584 44.835348 304.856078 -6.352424 182.221550 598684 3664.870268
0.285000 0.285066 3447.858159 43.446012 266.976727 -20.432605 84.411261 643228 3664.870268
0.295000 0.295058 3360.427577 73.068898 181.170430 14.372716 -32.950527 688036 3664.870268
