#Data file /home/DATA/sbrieden/Patchy_dr12_mocks/prerecon/original/Patchy-Mocks-DR12LOWZ-N-V5C-Portsmouth-mass_0001.dat
#Random file /home/DATA/sbrieden/Patchy_dr12_mocks/prerecon/original/Random-DR12LOWZ-N-V5C-x20.dat
#Number of data elements used: 235073
#Number of random elements used: 4685323
#Effective number of data elements weighted by wcol: 235073.000000
#Effective number of random elements weighted by wcol: 4685323.000000
#Effective number of data elements weighted by wcol*wsys: 235073.000000
#Effective number of random elements weighted by wcol*wsys: 4685323.000000
#Effective redshift value from data 0.330005
#Effective redshift value from randoms 0.330058
#Size of the Box 2500.000000 Mpc/h
#Area of the survey used 5826.000000 deg^2
#Value of alpha: 0.050158
#Normalization using data file
#Normalization using density
#Normalization 4.358260
#Shot noise factor 1.000000
#Shot noise value 3652.755446
#Type of Computation: FFT
#Number of grid cells: 512
#Type of Mass Assigment: TSC
#Type of Yamamoto: GridCenter
#Number of Interlacing steps: 2
#Grid Correction: yes
#Value of Om=0.310000
#Quadrupole as L2
#Octopole as L3
#Hexadecapole as L4
#k-centerbin	 k-eff	 Monopole-Pshotnoise	 Dipole	 Quadrupole	 Octopole	 Hexadecapole	 number of modes	 Pshotnoise
0.005000 0.007385 41011.074292 -13827.867982 2567.821736 3694.568885 5583.708490 250 3652.755446
0.015000 0.016012 68943.621819 2211.028478 31605.521824 12977.662041 11091.686826 1852 3652.755446
0.025000 0.025646 59197.337729 1683.252798 10684.155697 3298.593898 -311.917517 5020 3652.755446
0.035000 0.035469 50338.366686 2373.534236 15796.232948 1441.259083 1334.018058 9756 3652.755446
0.045000 0.045368 41650.356996 1323.953923 17913.735164 -609.829368 -487.182223 16108 3652.755446
0.055000 0.055314 33879.139404 262.975944 18786.327149 2365.943563 -3641.187256 24064 3652.755446
0.065000 0.065258 31223.500011 471.118808 11148.286009 657.979392 -4178.180601 33396 3652.755446
0.075000 0.075209 27017.803127 739.518077 8822.719047 793.303918 -2109.702253 44596 3652.755446
0.085000 0.085175 22019.303962 619.729872 7579.153944 204.485602 -120.615199 57124 3652.755446
0.095000 0.095157 17797.315078 308.915685 5221.989479 831.310042 -1274.019628 71620 3652.755446
0.105000 0.105162 15646.284267 301.151695 3808.978276 21.503128 690.893244 87552 3652.755446
0.115000 0.115148 14616.579880 242.993134 4081.175528 57.829116 -148.347902 104524 3652.755446
0.125000 0.125146 13006.287892 137.509754 3671.146344 156.491571 515.686168 124228 3652.755446
0.135000 0.135146 11796.559530 210.614054 3331.812590 205.537876 1326.536142 144204 3652.755446
0.145000 0.145132 10462.941465 208.902787 2912.013216 138.805677 391.710292 166492 3652.755446
0.155000 0.155114 8982.789052 148.789002 2405.638482 246.181011 907.470310 189964 3652.755446
0.165000 0.165102 8308.683619 80.706043 1620.082105 44.530573 477.052506 215640 3652.755446
0.175000 0.175105 7877.693259 119.683262 1607.093939 -66.164061 542.973936 242836 3652.755446
0.185000 0.185097 6995.713567 106.157895 1667.934791 101.943325 158.582812 270556 3652.755446
0.195000 0.195085 6581.097200 77.519738 1649.412434 85.257705 837.594691 301084 3652.755446
0.205000 0.205080 6179.347807 61.318141 1487.098875 24.689307 396.103546 332628 3652.755446
0.215000 0.215092 5595.554631 111.305388 1147.027502 73.104359 297.144052 367216 3652.755446
0.225000 0.225099 5261.770390 61.205698 1058.257760 0.010530 196.043731 400444 3652.755446
0.235000 0.235081 4857.695295 56.216419 874.881566 106.173663 249.497259 436500 3652.755446
0.245000 0.245077 4549.672372 82.302575 728.863049 -4.964183 390.532770 475900 3652.755446
0.255000 0.255082 4182.381466 60.018328 717.684056 50.437990 565.112263 514900 3652.755446
0.265000 0.265074 3942.364472 31.323217 386.358567 59.994781 311.457440 555408 3652.755446
0.275000 0.275066 3810.381905 54.669437 154.153721 -7.030932 12.065353 598684 3652.755446
0.285000 0.285066 3531.052403 73.656690 308.793274 13.730095 367.402545 643228 3652.755446
0.295000 0.295058 3301.875760 35.050463 127.260045 13.529955 264.995108 688036 3652.755446
