#Data file /home/DATA/sbrieden/Patchy_dr12_mocks/prerecon/original/Patchy-Mocks-DR12CMASS-S-V6C-Portsmouth-mass_0077.dat
#Random file /home/DATA/sbrieden/Patchy_dr12_mocks/prerecon/original/Random-DR12CMASS-S-V6C-x20.dat
#Number of data elements used: 216242
#Number of random elements used: 4288842
#Effective number of data elements weighted by wcol: 216242.000000
#Effective number of random elements weighted by wcol: 4288842.000000
#Effective number of data elements weighted by wcol*wsys: 216242.000000
#Effective number of random elements weighted by wcol*wsys: 4288842.000000
#Effective redshift value from data 0.597288
#Effective redshift value from randoms 0.597190
#Size of the Box 3700.000000 Mpc/h
#Area of the survey used 2525.000000 deg^2
#Value of alpha: 0.050426
#Normalization using data file
#Normalization using density
#Normalization 4.105421
#Shot noise factor 1.000000
#Shot noise value 4937.392508
#Type of Computation: FFT
#Number of grid cells: 512
#Type of Mass Assigment: TSC
#Type of Yamamoto: GridCenter
#Number of Interlacing steps: 2
#Grid Correction: yes
#Value of Om=0.310000
#Quadrupole as L2
#Octopole as L3
#Hexadecapole as L2L2
#k-centerbin	 k-eff	 Monopole-Pshotnoise	 Dipole	 Quadrupole	 Octopole	 Hexadecapole	 number of modes	 Pshotnoise
0.005000 0.007485 67311.901544 -1673.876399 14417.797992 6289.602201 4500.833734 846 4937.392508
0.015000 0.016072 61010.365687 1148.830458 3459.421930 -521.757087 8236.801052 6012 4937.392508
0.025000 0.025646 61782.688953 185.345682 5634.566397 663.517811 -4394.542354 16172 4937.392508
0.035000 0.035469 44844.658721 1831.634849 15881.800285 544.755676 6688.879782 31764 4937.392508
0.045000 0.045378 37804.856950 302.117550 17368.290523 1100.838209 8758.042916 52164 4937.392508
0.055000 0.055280 30394.453640 421.145991 12088.733163 639.345249 577.534965 77396 4937.392508
0.065000 0.065232 26611.384076 319.809256 12596.763519 657.378941 -590.975940 108936 4937.392508
0.075000 0.075229 23725.781722 359.645708 7935.886408 199.009294 -251.153810 144980 4937.392508
0.085000 0.085193 20102.730954 235.186991 7567.564522 298.022798 562.204654 184854 4937.392508
0.095000 0.095166 16792.275085 224.780754 5124.256111 445.070979 -425.572830 232260 4937.392508
0.105000 0.105155 14554.057034 201.874529 3972.571228 -144.334240 301.599016 282884 4937.392508
0.115000 0.115131 13238.330186 132.618922 4842.260593 256.543907 -221.297177 339084 4937.392508
0.125000 0.125124 11703.032630 80.199216 3507.417473 204.365215 829.692229 401864 4937.392508
0.135000 0.135125 11132.816554 128.287106 3014.397502 -55.769413 546.519274 468084 4937.392508
0.145000 0.145120 9696.466970 132.936699 2455.058037 95.799053 -608.283838 539940 4937.392508
0.155000 0.155118 8856.375775 106.295971 2724.842231 51.870499 -109.427163 617324 4937.392508
0.165000 0.165105 7986.525886 72.950425 2275.727908 114.345462 472.836560 697452 4937.392508
0.175000 0.175088 7221.370030 89.875036 1748.550278 0.895373 -348.969953 785846 4937.392508
0.185000 0.185089 6679.787446 86.568737 1599.623049 43.864079 39.692818 879528 4937.392508
0.195000 0.195093 6143.149285 82.061638 1359.392178 -36.442280 331.186542 976596 4937.392508
0.205000 0.205084 5759.628679 49.134571 1670.827626 76.448432 491.004518 1077212 4937.392508
0.215000 0.215076 5450.274641 82.703450 1253.626679 -14.416920 -138.431612 1186908 4937.392508
0.225000 0.225076 4912.955444 58.885213 1257.345239 79.757920 75.526770 1299452 4937.392508
0.235000 0.235073 4740.295258 52.532885 795.123565 72.880872 233.193501 1417356 4937.392508
0.245000 0.245067 4299.029853 64.392452 446.243127 -24.936058 222.095772 1539600 4937.392508
0.255000 0.255064 4091.385061 53.041249 338.540069 38.934946 64.257357 1669820 4937.392508
0.265000 0.265061 3935.719990 50.621277 373.661116 17.944923 102.698426 1801086 4937.392508
0.275000 0.275060 3632.727509 74.993159 223.699608 -36.876754 134.182844 1942244 4937.392508
0.285000 0.285062 3490.037898 56.518504 397.029036 53.475307 284.860803 2084796 4937.392508
0.295000 0.295057 3195.957092 57.179482 154.285910 -24.073429 368.801781 2231868 4937.392508
