#Data file /home/DATA/sbrieden/Patchy_dr12_mocks/prerecon/original/Patchy-Mocks-DR12CMASS-N-V6C-Portsmouth-mass_0027.dat
#Random file /home/DATA/sbrieden/Patchy_dr12_mocks/prerecon/original/Random-DR12CMASS-N-V6C-x20.dat
#Number of data elements used: 593128
#Number of random elements used: 11797448
#Effective number of data elements weighted by wcol: 593128.000000
#Effective number of random elements weighted by wcol: 11797448.000000
#Effective number of data elements weighted by wcol*wsys: 593128.000000
#Effective number of random elements weighted by wcol*wsys: 11797448.000000
#Effective redshift value from data 0.598185
#Effective redshift value from randoms 0.597992
#Size of the Box 3700.000000 Mpc/h
#Area of the survey used 6851.000000 deg^2
#Value of alpha: 0.050239
#Normalization using data file
#Normalization using density
#Normalization 11.143933
#Shot noise factor 1.000000
#Shot noise value 4938.065285
#Type of Computation: FFT
#Number of grid cells: 512
#Type of Mass Assigment: TSC
#Type of Yamamoto: GridCenter
#Number of Interlacing steps: 2
#Grid Correction: yes
#Value of Om=0.310000
#Quadrupole as L2
#Octopole as L3
#Hexadecapole as L2L2
#k-centerbin	 k-eff	 Monopole-Pshotnoise	 Dipole	 Quadrupole	 Octopole	 Hexadecapole	 number of modes	 Pshotnoise
0.005000 0.007485 66274.246178 264.174437 6588.815568 6323.191524 5058.026224 846 4938.065285
0.015000 0.016072 79739.240068 841.589835 8076.555855 -296.811603 5587.621196 6012 4938.065285
0.025000 0.025646 58037.197258 1831.091522 25332.608303 2773.619691 7929.048531 16172 4938.065285
0.035000 0.035469 45895.662205 682.470428 21503.021545 1206.272215 6363.020633 31764 4938.065285
0.045000 0.045378 38856.058906 871.298942 15204.246231 1084.620434 -185.477890 52164 4938.065285
0.055000 0.055280 30912.784979 223.521722 11012.363461 572.765373 -800.039341 77396 4938.065285
0.065000 0.065232 28359.938095 417.709237 10762.197187 267.707419 2629.477832 108936 4938.065285
0.075000 0.075229 23825.925116 420.124246 9710.647883 326.048812 351.119937 144980 4938.065285
0.085000 0.085193 20370.684010 214.610097 8084.627424 492.238002 2857.581547 184854 4938.065285
0.095000 0.095166 17590.768048 221.578641 6494.750415 259.305984 1467.217293 232260 4938.065285
0.105000 0.105155 14697.857169 216.602528 4772.761294 109.903635 -447.426242 282884 4938.065285
0.115000 0.115131 12871.010965 157.731293 4569.829504 179.574628 656.775495 339084 4938.065285
0.125000 0.125124 12300.144559 65.390106 4492.106378 117.314069 618.344052 401864 4938.065285
0.135000 0.135125 11015.183133 150.493885 3765.274953 113.374375 763.735926 468084 4938.065285
0.145000 0.145120 9727.207558 111.584330 2966.569681 73.442956 549.743644 539940 4938.065285
0.155000 0.155118 8696.212479 114.695465 2753.735923 23.717097 -202.487258 617324 4938.065285
0.165000 0.165105 7804.938862 96.335549 2373.464641 89.423286 617.351137 697452 4938.065285
0.175000 0.175088 7158.181146 78.840449 1800.788101 53.675511 292.667952 785846 4938.065285
0.185000 0.185089 6634.959698 65.926643 1837.226141 49.328788 259.192762 879528 4938.065285
0.195000 0.195093 6137.231803 77.388045 1643.930370 50.471079 308.800429 976596 4938.065285
0.205000 0.205084 5723.900805 66.722207 1318.218444 34.470589 292.545757 1077212 4938.065285
0.215000 0.215076 5269.043762 63.109114 1057.802976 10.806494 351.335810 1186908 4938.065285
0.225000 0.225076 4969.546596 63.349145 1057.885893 43.745119 267.780985 1299452 4938.065285
0.235000 0.235073 4540.263188 58.208104 859.074920 30.790893 272.402691 1417356 4938.065285
0.245000 0.245067 4263.923323 63.043111 614.953720 17.644607 154.958015 1539600 4938.065285
0.255000 0.255064 3985.474888 58.309952 607.399152 9.726489 235.631095 1669820 4938.065285
0.265000 0.265061 3756.758038 51.071801 575.796541 18.542410 118.520070 1801086 4938.065285
0.275000 0.275060 3541.852309 57.038909 353.367668 44.921541 245.004834 1942244 4938.065285
0.285000 0.285062 3340.189196 58.992497 243.227707 -20.567138 210.863868 2084796 4938.065285
0.295000 0.295057 3164.019208 55.415034 248.657231 12.772060 153.857245 2231868 4938.065285
