#Data file /home/DATA/sbrieden/Patchy_dr12_mocks/prerecon/original/Patchy-Mocks-DR12LOWZ-S-V5C-Portsmouth-mass_0083.dat
#Random file /home/DATA/sbrieden/Patchy_dr12_mocks/prerecon/original/Random-DR12LOWZ-S-V5C-x20.dat
#Number of data elements used: 100794
#Number of random elements used: 2007904
#Effective number of data elements weighted by wcol: 100794.000000
#Effective number of random elements weighted by wcol: 2007904.000000
#Effective number of data elements weighted by wcol*wsys: 100794.000000
#Effective number of random elements weighted by wcol*wsys: 2007904.000000
#Effective redshift value from data 0.330280
#Effective redshift value from randoms 0.330155
#Size of the Box 2500.000000 Mpc/h
#Area of the survey used 2501.000000 deg^2
#Value of alpha: 0.050181
#Normalization using data file
#Normalization using density
#Normalization 1.868007
#Shot noise factor 1.000000
#Shot noise value 3657.903675
#Type of Computation: FFT
#Number of grid cells: 512
#Type of Mass Assigment: TSC
#Type of Yamamoto: GridCenter
#Number of Interlacing steps: 2
#Grid Correction: yes
#Value of Om=0.310000
#Quadrupole as L2
#Octopole as L3
#Hexadecapole as L2L2
#k-centerbin	 k-eff	 Monopole-Pshotnoise	 Dipole	 Quadrupole	 Octopole	 Hexadecapole	 number of modes	 Pshotnoise
0.005000 0.007385 46536.516120 -12032.977161 -27420.178202 -16067.799788 15812.307660 250 3657.903675
0.015000 0.016012 75887.726587 986.199781 29384.911889 -7782.614487 -43870.624433 1852 3657.903675
0.025000 0.025646 77550.796700 2164.734643 45712.022073 6415.019486 -26624.695853 5020 3657.903675
0.035000 0.035469 55245.135849 3389.968757 17944.072215 1651.706974 -6996.617317 9756 3657.903675
0.045000 0.045368 42930.920833 1228.704345 14451.568115 2788.627935 2454.835248 16108 3657.903675
0.055000 0.055314 33657.183436 297.214209 8884.201291 1341.763184 9536.813935 24064 3657.903675
0.065000 0.065258 29644.907037 731.898180 13543.668700 -142.195297 2425.237595 33396 3657.903675
0.075000 0.075209 25505.105550 698.090106 9523.218948 917.437875 -1495.849609 44596 3657.903675
0.085000 0.085175 22209.373571 351.281132 5549.526778 1114.148941 2312.857394 57124 3657.903675
0.095000 0.095157 18626.311887 429.729116 7901.616115 -62.353349 4801.177203 71620 3657.903675
0.105000 0.105162 16511.619096 336.822197 7292.254805 62.066221 -1137.869814 87552 3657.903675
0.115000 0.115148 14335.633120 213.272601 4439.051047 821.279121 1192.690794 104524 3657.903675
0.125000 0.125146 12622.023212 244.760798 4519.505102 -59.359193 572.963368 124228 3657.903675
0.135000 0.135146 11190.017091 150.203534 2586.844580 418.810015 -95.499145 144204 3657.903675
0.145000 0.145132 10508.804739 112.659886 2149.963801 -23.637905 400.786314 166492 3657.903675
0.155000 0.155114 9725.096282 171.684069 2379.043084 -53.262156 -922.157011 189964 3657.903675
0.165000 0.165102 8524.754181 127.095793 2391.493518 173.616201 568.077549 215640 3657.903675
0.175000 0.175105 7721.822039 126.029728 1745.840070 65.281132 -144.873048 242836 3657.903675
0.185000 0.185097 7105.633591 64.435082 1368.260785 52.832318 188.825840 270556 3657.903675
0.195000 0.195085 6757.129400 92.011437 1463.525320 73.751746 -499.897948 301084 3657.903675
0.205000 0.205080 6294.445096 85.402779 1449.764312 7.201191 -72.682802 332628 3657.903675
0.215000 0.215092 5678.955398 89.328380 1265.940189 86.562490 63.352018 367216 3657.903675
0.225000 0.225099 5220.882350 73.449904 860.906376 130.863158 353.621929 400444 3657.903675
0.235000 0.235081 4858.927374 75.343284 888.892888 0.973533 347.811487 436500 3657.903675
0.245000 0.245077 4477.965072 66.866987 685.006672 -17.136383 663.148755 475900 3657.903675
0.255000 0.255082 4231.230208 55.011306 295.374034 85.804971 318.479611 514900 3657.903675
0.265000 0.265074 4007.360071 22.293512 220.994750 65.666027 648.793200 555408 3657.903675
0.275000 0.275066 3817.347336 77.507695 210.830543 -45.028696 360.242151 598684 3657.903675
0.285000 0.285066 3557.935624 59.118962 147.561461 0.189624 249.592019 643228 3657.903675
0.295000 0.295058 3309.882386 53.128521 141.195132 40.486375 262.423757 688036 3657.903675
