#Data file /home/DATA/sbrieden/Patchy_dr12_mocks/prerecon/original/Patchy-Mocks-DR12CMASS-S-V6C-Portsmouth-mass_0027.dat
#Random file /home/DATA/sbrieden/Patchy_dr12_mocks/prerecon/original/Random-DR12CMASS-S-V6C-x20.dat
#Number of data elements used: 214716
#Number of random elements used: 4288842
#Effective number of data elements weighted by wcol: 214716.000000
#Effective number of random elements weighted by wcol: 4288842.000000
#Effective number of data elements weighted by wcol*wsys: 214716.000000
#Effective number of random elements weighted by wcol*wsys: 4288842.000000
#Effective redshift value from data 0.597403
#Effective redshift value from randoms 0.597190
#Size of the Box 3700.000000 Mpc/h
#Area of the survey used 2525.000000 deg^2
#Value of alpha: 0.050062
#Normalization using data file
#Normalization using density
#Normalization 4.076626
#Shot noise factor 1.000000
#Shot noise value 4932.592338
#Type of Computation: FFT
#Number of grid cells: 512
#Type of Mass Assigment: TSC
#Type of Yamamoto: GridCenter
#Number of Interlacing steps: 2
#Grid Correction: yes
#Value of Om=0.310000
#Quadrupole as L2
#Octopole as L3
#Hexadecapole as L2L2
#k-centerbin	 k-eff	 Monopole-Pshotnoise	 Dipole	 Quadrupole	 Octopole	 Hexadecapole	 number of modes	 Pshotnoise
0.005000 0.007485 46385.962781 -428.053562 11572.013664 -16875.449327 -32708.778590 846 4932.592338
0.015000 0.016072 73992.519220 2040.572989 34354.374195 5942.767046 -2062.465076 6012 4932.592338
0.025000 0.025646 56962.683139 590.571923 17313.287438 473.358888 -5613.018045 16172 4932.592338
0.035000 0.035469 48379.957990 738.376530 15624.806879 1546.104905 -1951.077451 31764 4932.592338
0.045000 0.045378 38332.994594 1199.375464 11195.057131 9.718132 -4710.294322 52164 4932.592338
0.055000 0.055280 30507.224229 145.751429 12917.842981 595.769401 -2257.303331 77396 4932.592338
0.065000 0.065232 27138.892018 343.589172 12230.354970 877.550270 6616.954746 108936 4932.592338
0.075000 0.075229 23729.464720 336.323082 8525.016118 803.125289 2597.872027 144980 4932.592338
0.085000 0.085193 19060.855178 276.426614 5892.955799 92.056967 2730.808894 184854 4932.592338
0.095000 0.095166 16631.912134 121.273271 5023.921162 419.711165 791.287537 232260 4932.592338
0.105000 0.105155 14692.732077 255.148469 3734.899700 -79.284210 303.916073 282884 4932.592338
0.115000 0.115131 13040.988362 131.931048 4143.591974 -14.885350 -608.965597 339084 4932.592338
0.125000 0.125124 11738.321494 167.011180 4368.008777 207.774892 928.112761 401864 4932.592338
0.135000 0.135125 10513.187890 76.591926 2854.081673 70.741796 626.892719 468084 4932.592338
0.145000 0.145120 9639.810229 119.864927 2189.430806 116.810010 1270.755552 539940 4932.592338
0.155000 0.155118 8654.791873 109.683075 2389.988408 -46.781404 217.838216 617324 4932.592338
0.165000 0.165105 7786.438810 78.012224 1765.202714 133.314802 -276.228912 697452 4932.592338
0.175000 0.175088 7073.311435 106.814669 1440.975074 -15.003375 13.028117 785846 4932.592338
0.185000 0.185089 6652.807881 39.163819 1645.434003 63.931779 257.345850 879528 4932.592338
0.195000 0.195093 6125.967783 87.850725 1450.436163 46.776575 802.262964 976596 4932.592338
0.205000 0.205084 5689.367295 53.520194 1166.831098 8.932539 638.518264 1077212 4932.592338
0.215000 0.215076 5415.420110 60.243958 1221.025333 35.176246 -4.018911 1186908 4932.592338
0.225000 0.225076 4993.796106 71.352145 849.830897 53.695996 79.344754 1299452 4932.592338
0.235000 0.235073 4619.118893 77.209092 734.554546 -13.492837 310.494028 1417356 4932.592338
0.245000 0.245067 4257.256339 57.033175 596.170738 24.944320 -64.354024 1539600 4932.592338
0.255000 0.255064 4070.784225 39.831146 423.317246 45.686823 497.733922 1669820 4932.592338
0.265000 0.265061 3766.108575 74.795696 447.156475 -33.358970 44.867499 1801086 4932.592338
0.275000 0.275060 3491.456168 45.563961 189.648118 61.190990 -68.410032 1942244 4932.592338
0.285000 0.285062 3395.653702 61.675330 94.222272 -9.069594 193.456341 2084796 4932.592338
0.295000 0.295057 3203.034322 51.019294 90.022723 5.299329 226.429448 2231868 4932.592338
