#Data file /home/DATA/sbrieden/Patchy_dr12_mocks/prerecon/original/Patchy-Mocks-DR12CMASS-N-V6C-Portsmouth-mass_0003.dat
#Random file /home/DATA/sbrieden/Patchy_dr12_mocks/prerecon/original/Random-DR12CMASS-N-V6C-x20.dat
#Number of data elements used: 585855
#Number of random elements used: 11797448
#Effective number of data elements weighted by wcol: 585855.000000
#Effective number of random elements weighted by wcol: 11797448.000000
#Effective number of data elements weighted by wcol*wsys: 585855.000000
#Effective number of random elements weighted by wcol*wsys: 11797448.000000
#Effective redshift value from data 0.598181
#Effective redshift value from randoms 0.597992
#Size of the Box 3700.000000 Mpc/h
#Area of the survey used 6851.000000 deg^2
#Value of alpha: 0.049700
#Normalization using data file
#Normalization using density
#Normalization 11.019546
#Shot noise factor 1.000000
#Shot noise value 4941.966388
#Type of Computation: FFT
#Number of grid cells: 512
#Type of Mass Assigment: TSC
#Type of Yamamoto: GridCenter
#Number of Interlacing steps: 2
#Grid Correction: yes
#Value of Om=0.310000
#Quadrupole as L2
#Octopole as L3
#Hexadecapole as L2L2
#k-centerbin	 k-eff	 Monopole-Pshotnoise	 Dipole	 Quadrupole	 Octopole	 Hexadecapole	 number of modes	 Pshotnoise
0.005000 0.007485 46521.348630 -4559.873838 -7801.709395 -1043.769559 2784.824757 846 4941.966388
0.015000 0.016072 62019.205747 -11.988284 8307.936948 -4330.400449 -19679.186707 6012 4941.966388
0.025000 0.025646 58343.880144 1316.198297 18860.271560 3261.938683 5702.044132 16172 4941.966388
0.035000 0.035469 46736.996456 689.305853 14458.237612 -251.345607 -271.174103 31764 4941.966388
0.045000 0.045378 38342.482093 942.100359 17930.926586 936.371236 -4861.924445 52164 4941.966388
0.055000 0.055280 31388.714548 338.489066 13801.244375 1034.047494 -683.729432 77396 4941.966388
0.065000 0.065232 27039.552831 282.707048 6948.268292 413.364530 2663.091242 108936 4941.966388
0.075000 0.075229 23688.733946 400.837442 8480.734584 123.129715 496.404151 144980 4941.966388
0.085000 0.085193 20552.606062 232.450362 7843.471588 405.526171 1685.272387 184854 4941.966388
0.095000 0.095166 17454.951278 266.481303 6930.236529 81.317211 1017.069970 232260 4941.966388
0.105000 0.105155 14713.284832 215.245582 5331.891407 144.788259 -1232.338626 282884 4941.966388
0.115000 0.115131 12865.553497 128.293159 4387.329275 245.928846 -480.804772 339084 4941.966388
0.125000 0.125124 11891.613515 107.243880 3759.416180 27.218341 221.082171 401864 4941.966388
0.135000 0.135125 10869.553510 109.211782 2937.501828 133.614424 202.168381 468084 4941.966388
0.145000 0.145120 9668.993387 116.304046 2702.623726 140.495619 742.901536 539940 4941.966388
0.155000 0.155118 8599.395988 123.092103 2503.431653 5.012651 749.023773 617324 4941.966388
0.165000 0.165105 7893.425727 53.474920 2222.106999 78.677578 457.672335 697452 4941.966388
0.175000 0.175088 7224.740635 118.599527 1863.299859 0.563530 256.768085 785846 4941.966388
0.185000 0.185089 6552.692261 43.022272 1769.800350 96.347461 296.634166 879528 4941.966388
0.195000 0.195093 6194.095773 91.025505 1406.912488 21.545368 326.821058 976596 4941.966388
0.205000 0.205084 5660.423352 52.231402 1160.811418 36.176191 303.722004 1077212 4941.966388
0.215000 0.215076 5386.238021 60.160368 1229.726359 21.331925 101.390038 1186908 4941.966388
0.225000 0.225076 4980.678473 76.355184 1072.082657 37.212838 364.833214 1299452 4941.966388
0.235000 0.235073 4589.215609 54.891975 682.695047 26.699939 300.178209 1417356 4941.966388
0.245000 0.245067 4298.544088 67.017346 642.690090 8.351602 227.403446 1539600 4941.966388
0.255000 0.255064 4010.220207 51.870183 431.615097 36.993442 273.258622 1669820 4941.966388
0.265000 0.265061 3829.966649 55.127918 383.982650 10.193545 387.835307 1801086 4941.966388
0.275000 0.275060 3556.115940 57.967168 306.979561 30.289409 346.271145 1942244 4941.966388
0.285000 0.285062 3302.261394 63.113968 268.578783 -16.921169 238.012621 2084796 4941.966388
0.295000 0.295057 3159.853126 50.550770 218.022923 15.067909 173.136005 2231868 4941.966388
