#Data file /home/DATA/sbrieden/Patchy_dr12_mocks/prerecon/original/Patchy-Mocks-DR12LOWZ-S-V5C-Portsmouth-mass_0092.dat
#Random file /home/DATA/sbrieden/Patchy_dr12_mocks/prerecon/original/Random-DR12LOWZ-S-V5C-x20.dat
#Number of data elements used: 101689
#Number of random elements used: 2007904
#Effective number of data elements weighted by wcol: 101689.000000
#Effective number of random elements weighted by wcol: 2007904.000000
#Effective number of data elements weighted by wcol*wsys: 101689.000000
#Effective number of random elements weighted by wcol*wsys: 2007904.000000
#Effective redshift value from data 0.330945
#Effective redshift value from randoms 0.330155
#Size of the Box 2500.000000 Mpc/h
#Area of the survey used 2501.000000 deg^2
#Value of alpha: 0.050708
#Normalization using data file
#Normalization using density
#Normalization 1.886949
#Shot noise factor 1.000000
#Shot noise value 3664.609104
#Type of Computation: FFT
#Number of grid cells: 512
#Type of Mass Assigment: TSC
#Type of Yamamoto: GridCenter
#Number of Interlacing steps: 2
#Grid Correction: yes
#Value of Om=0.310000
#Quadrupole as L2
#Octopole as L3
#Hexadecapole as L2L2
#k-centerbin	 k-eff	 Monopole-Pshotnoise	 Dipole	 Quadrupole	 Octopole	 Hexadecapole	 number of modes	 Pshotnoise
0.005000 0.007385 30255.812989 1744.195943 30472.897176 3211.047237 2376.641401 250 3664.609104
0.015000 0.016012 64380.977163 -3002.918526 -1867.133265 6177.199582 -27772.653826 1852 3664.609104
0.025000 0.025646 61897.161583 358.741843 6284.588271 -9468.884575 -15668.434745 5020 3664.609104
0.035000 0.035469 50620.849381 3329.364098 10295.719313 -1860.231799 -15108.431582 9756 3664.609104
0.045000 0.045368 40846.372703 293.264566 18353.313222 1592.826918 1346.513666 16108 3664.609104
0.055000 0.055314 36871.988966 908.776772 9572.106671 1985.448832 -6236.770566 24064 3664.609104
0.065000 0.065258 30857.090493 674.767422 6652.839343 -1037.610316 1037.382135 33396 3664.609104
0.075000 0.075209 26873.501943 526.339405 7865.591209 680.125112 -3209.369592 44596 3664.609104
0.085000 0.085175 22094.126067 620.640660 6497.892986 744.296175 -3378.577164 57124 3664.609104
0.095000 0.095157 17898.014004 445.060552 6683.916502 -125.333983 1630.295545 71620 3664.609104
0.105000 0.105162 16059.461456 361.950767 8424.578562 484.857872 1165.847730 87552 3664.609104
0.115000 0.115148 13872.030428 209.675476 5611.753215 469.386792 -414.222583 104524 3664.609104
0.125000 0.125146 12626.180740 118.434802 4401.037137 220.339357 1163.890584 124228 3664.609104
0.135000 0.135146 12045.015451 127.008892 3802.953937 424.465890 446.156066 144204 3664.609104
0.145000 0.145132 10311.465926 279.561629 2802.644529 -45.242676 -125.201058 166492 3664.609104
0.155000 0.155114 9103.137355 99.960693 2562.064702 281.687004 794.800483 189964 3664.609104
0.165000 0.165102 8553.341324 109.086661 2299.548646 80.505867 1673.226022 215640 3664.609104
0.175000 0.175105 7959.218657 117.369345 2305.118756 -31.007517 221.813829 242836 3664.609104
0.185000 0.185097 7187.360450 84.674732 1713.686101 114.582894 -167.093485 270556 3664.609104
0.195000 0.195085 6596.979640 57.816463 995.098415 139.560849 281.447571 301084 3664.609104
0.205000 0.205080 6308.450112 121.130731 1053.680423 45.794579 343.297970 332628 3664.609104
0.215000 0.215092 5723.786865 56.160172 1015.363062 40.631857 511.075961 367216 3664.609104
0.225000 0.225099 5315.151362 95.816861 662.050760 12.483612 388.449722 400444 3664.609104
0.235000 0.235081 4720.738376 73.225913 820.508547 23.455358 383.382477 436500 3664.609104
0.245000 0.245077 4753.572720 20.292949 356.984604 62.844636 612.153750 475900 3664.609104
0.255000 0.255082 4326.856545 87.327922 630.802096 -30.422313 203.260227 514900 3664.609104
0.265000 0.265074 3946.215915 70.875989 442.259209 6.380415 65.886961 555408 3664.609104
0.275000 0.275066 3769.779879 36.667617 503.535243 24.895026 -6.703957 598684 3664.609104
0.285000 0.285066 3624.580211 54.969718 218.578561 10.121087 104.185776 643228 3664.609104
0.295000 0.295058 3357.244506 56.516622 111.948599 59.944348 -63.555283 688036 3664.609104
