#Data file /home/DATA/sbrieden/Patchy_dr12_mocks/prerecon/original/Patchy-Mocks-DR12LOWZ-S-V5C-Portsmouth-mass_0091.dat
#Random file /home/DATA/sbrieden/Patchy_dr12_mocks/prerecon/original/Random-DR12LOWZ-S-V5C-x20.dat
#Number of data elements used: 100216
#Number of random elements used: 2007904
#Effective number of data elements weighted by wcol: 100216.000000
#Effective number of random elements weighted by wcol: 2007904.000000
#Effective number of data elements weighted by wcol*wsys: 100216.000000
#Effective number of random elements weighted by wcol*wsys: 2007904.000000
#Effective redshift value from data 0.329216
#Effective redshift value from randoms 0.330155
#Size of the Box 2500.000000 Mpc/h
#Area of the survey used 2501.000000 deg^2
#Value of alpha: 0.049895
#Normalization using data file
#Normalization using density
#Normalization 1.857580
#Shot noise factor 1.000000
#Shot noise value 3655.231959
#Type of Computation: FFT
#Number of grid cells: 512
#Type of Mass Assigment: TSC
#Type of Yamamoto: GridCenter
#Number of Interlacing steps: 2
#Grid Correction: yes
#Value of Om=0.310000
#Quadrupole as L2
#Octopole as L3
#Hexadecapole as L2L2
#k-centerbin	 k-eff	 Monopole-Pshotnoise	 Dipole	 Quadrupole	 Octopole	 Hexadecapole	 number of modes	 Pshotnoise
0.005000 0.007385 26485.610884 -711.814655 32463.830649 6414.472896 -7265.325994 250 3655.231959
0.015000 0.016012 45527.884509 -4982.184002 -3291.669337 9336.736068 -6720.371714 1852 3655.231959
0.025000 0.025646 58506.645782 1960.335664 -11790.157296 -12366.152756 -17100.392968 5020 3655.231959
0.035000 0.035469 44599.607081 1417.334857 21716.747800 4784.328909 12711.632782 9756 3655.231959
0.045000 0.045368 44383.561803 555.704362 12971.592145 121.242178 646.993612 16108 3655.231959
0.055000 0.055314 34621.557949 1217.772197 10506.655653 369.716163 -1951.480058 24064 3655.231959
0.065000 0.065258 29022.402830 689.030521 10545.786803 1858.155745 1483.311118 33396 3655.231959
0.075000 0.075209 25451.050277 557.425439 5023.754625 -731.515598 -3575.994678 44596 3655.231959
0.085000 0.085175 21839.014501 199.471824 9281.760156 933.151471 2841.346530 57124 3655.231959
0.095000 0.095157 18931.863223 495.156246 6673.478909 -1.571212 164.261831 71620 3655.231959
0.105000 0.105162 15806.123744 312.058641 4201.168823 418.716432 -3242.859816 87552 3655.231959
0.115000 0.115148 14043.283517 304.275356 3964.634829 434.949883 1086.357753 104524 3655.231959
0.125000 0.125146 12797.029865 143.719045 4380.390246 34.901686 -586.074193 124228 3655.231959
0.135000 0.135146 11658.183358 172.770826 2248.987555 62.447915 -865.476485 144204 3655.231959
0.145000 0.145132 10166.177503 234.046546 2818.114509 124.724514 -26.913293 166492 3655.231959
0.155000 0.155114 9267.635936 71.443385 2760.351744 197.390532 992.466462 189964 3655.231959
0.165000 0.165102 8339.895813 125.991090 2123.036290 -33.869737 249.682945 215640 3655.231959
0.175000 0.175105 7734.297122 111.820096 1342.294962 231.843295 -159.412721 242836 3655.231959
0.185000 0.185097 7169.777124 80.744628 1649.806266 -204.222735 -282.067473 270556 3655.231959
0.195000 0.195085 6892.239905 102.447871 1898.209094 173.316960 -350.680744 301084 3655.231959
0.205000 0.205080 5901.451871 123.932950 1407.904638 90.703896 956.224159 332628 3655.231959
0.215000 0.215092 5542.832909 43.733965 483.123715 135.131282 270.324712 367216 3655.231959
0.225000 0.225099 5301.370684 58.144148 440.797617 55.575697 628.644520 400444 3655.231959
0.235000 0.235081 4866.874099 82.466324 281.911868 -87.461243 133.672747 436500 3655.231959
0.245000 0.245077 4462.075495 71.841744 417.670543 29.601753 477.685024 475900 3655.231959
0.255000 0.255082 4305.726627 52.571562 491.866951 65.837179 214.109475 514900 3655.231959
0.265000 0.265074 4071.919490 54.078045 148.891539 62.843556 389.801596 555408 3655.231959
0.275000 0.275066 3762.606504 63.815538 -18.768736 -28.938812 359.632368 598684 3655.231959
0.285000 0.285066 3426.625912 47.180569 160.579089 6.926263 343.544021 643228 3655.231959
0.295000 0.295058 3301.912996 60.409459 -48.219718 -0.940252 169.082288 688036 3655.231959
