#Data file /home/DATA/sbrieden/Patchy_dr12_mocks/prerecon/original/Patchy-Mocks-DR12CMASS-S-V6C-Portsmouth-mass_0040.dat
#Random file /home/DATA/sbrieden/Patchy_dr12_mocks/prerecon/original/Random-DR12CMASS-S-V6C-x20.dat
#Number of data elements used: 214202
#Number of random elements used: 4288842
#Effective number of data elements weighted by wcol: 214202.000000
#Effective number of random elements weighted by wcol: 4288842.000000
#Effective number of data elements weighted by wcol*wsys: 214202.000000
#Effective number of random elements weighted by wcol*wsys: 4288842.000000
#Effective redshift value from data 0.597311
#Effective redshift value from randoms 0.597190
#Size of the Box 3700.000000 Mpc/h
#Area of the survey used 2525.000000 deg^2
#Value of alpha: 0.049994
#Normalization using data file
#Normalization using density
#Normalization 4.071222
#Shot noise factor 1.000000
#Shot noise value 4931.960782
#Type of Computation: FFT
#Number of grid cells: 512
#Type of Mass Assigment: TSC
#Type of Yamamoto: GridCenter
#Number of Interlacing steps: 2
#Grid Correction: yes
#Value of Om=0.310000
#Quadrupole as L2
#Octopole as L3
#Hexadecapole as L2L2
#k-centerbin	 k-eff	 Monopole-Pshotnoise	 Dipole	 Quadrupole	 Octopole	 Hexadecapole	 number of modes	 Pshotnoise
0.005000 0.007485 13336.050031 -1458.650726 14016.096789 -2420.944940 -7998.285619 846 4931.960782
0.015000 0.016072 52051.453819 -1344.128180 24858.421784 3352.855318 5073.382334 6012 4931.960782
0.025000 0.025646 51101.315633 1103.524927 15414.097280 1803.757667 -7125.312646 16172 4931.960782
0.035000 0.035469 41607.087337 703.128203 6275.930967 -190.668275 -2116.230208 31764 4931.960782
0.045000 0.045378 36098.636037 556.922718 13610.548807 368.074668 4974.912130 52164 4931.960782
0.055000 0.055280 32629.335608 343.907710 12390.585976 479.042747 -835.269316 77396 4931.960782
0.065000 0.065232 27152.679940 486.878013 10064.780015 402.891089 -2344.060903 108936 4931.960782
0.075000 0.075229 22969.351654 277.493406 9160.437048 396.460891 281.522138 144980 4931.960782
0.085000 0.085193 19760.069498 236.058328 7512.489941 423.109311 1352.822434 184854 4931.960782
0.095000 0.095166 16583.042835 254.552416 4768.599023 73.746477 332.516703 232260 4931.960782
0.105000 0.105155 13990.959472 208.706421 5588.087797 56.937005 -520.421094 282884 4931.960782
0.115000 0.115131 12820.860325 109.418270 4627.327681 168.982785 -157.113211 339084 4931.960782
0.125000 0.125124 11733.106754 119.918381 4295.864136 157.766541 585.202655 401864 4931.960782
0.135000 0.135125 10681.020077 106.351127 3493.358392 112.522177 475.933709 468084 4931.960782
0.145000 0.145120 9624.157258 99.191242 3055.889327 29.296342 721.263711 539940 4931.960782
0.155000 0.155118 8393.684004 142.068265 2851.259231 98.831307 7.666107 617324 4931.960782
0.165000 0.165105 7574.274250 83.588876 2230.298374 88.023562 359.251888 697452 4931.960782
0.175000 0.175088 7004.534700 58.568249 1845.131534 95.615772 792.565715 785846 4931.960782
0.185000 0.185089 6642.599173 60.185103 1564.984606 8.207728 295.299537 879528 4931.960782
0.195000 0.195093 6245.630447 52.065838 1094.438000 97.137512 789.150185 976596 4931.960782
0.205000 0.205084 5860.523432 85.416520 1363.324899 8.268527 401.504521 1077212 4931.960782
0.215000 0.215076 5208.497895 71.796574 972.261724 9.541924 -222.977290 1186908 4931.960782
0.225000 0.225076 4808.643542 59.606893 963.993322 34.012478 318.115746 1299452 4931.960782
0.235000 0.235073 4561.137399 61.383090 706.356613 44.140216 329.409752 1417356 4931.960782
0.245000 0.245067 4322.400888 56.005071 439.871983 -31.473622 225.653241 1539600 4931.960782
0.255000 0.255064 4085.577993 59.299876 537.090240 23.900827 102.891079 1669820 4931.960782
0.265000 0.265061 3792.102163 53.217122 591.057692 35.381194 229.846030 1801086 4931.960782
0.275000 0.275060 3619.102947 58.968162 201.117334 -2.112021 4.006074 1942244 4931.960782
0.285000 0.285062 3410.770398 63.345622 152.480283 -4.287460 84.202468 2084796 4931.960782
0.295000 0.295057 3151.055477 48.974208 333.823938 21.343675 280.751184 2231868 4931.960782
