#Data file /home/DATA/sbrieden/Patchy_dr12_mocks/prerecon/original/Patchy-Mocks-DR12LOWZ-N-V5C-Portsmouth-mass_0062.dat
#Random file /home/DATA/sbrieden/Patchy_dr12_mocks/prerecon/original/Random-DR12LOWZ-N-V5C-x20.dat
#Number of data elements used: 233728
#Number of random elements used: 4685323
#Effective number of data elements weighted by wcol: 233728.000000
#Effective number of random elements weighted by wcol: 4685323.000000
#Effective number of data elements weighted by wcol*wsys: 233728.000000
#Effective number of random elements weighted by wcol*wsys: 4685323.000000
#Effective redshift value from data 0.330073
#Effective redshift value from randoms 0.330058
#Size of the Box 2500.000000 Mpc/h
#Area of the survey used 5826.000000 deg^2
#Value of alpha: 0.049886
#Normalization using data file
#Normalization using density
#Normalization 4.333619
#Shot noise factor 1.000000
#Shot noise value 3654.855526
#Type of Computation: FFT
#Number of grid cells: 512
#Type of Mass Assigment: TSC
#Type of Yamamoto: GridCenter
#Number of Interlacing steps: 2
#Grid Correction: yes
#Value of Om=0.310000
#Quadrupole as L2
#Octopole as L3
#Hexadecapole as L2L2
#k-centerbin	 k-eff	 Monopole-Pshotnoise	 Dipole	 Quadrupole	 Octopole	 Hexadecapole	 number of modes	 Pshotnoise
0.005000 0.007385 51332.590795 -10168.887423 -33428.310422 12080.247563 18605.463322 250 3654.855526
0.015000 0.016012 66428.899128 -2812.553993 -11498.993130 -11047.499893 -8143.506642 1852 3654.855526
0.025000 0.025646 62707.031726 3591.553218 20704.428416 4266.737267 3714.141566 5020 3654.855526
0.035000 0.035469 48726.684531 1399.716749 12843.650275 -1074.281882 -5691.738015 9756 3654.855526
0.045000 0.045368 43351.929212 1087.464669 15463.200568 1179.640281 4705.483672 16108 3654.855526
0.055000 0.055314 33645.937798 887.311351 7185.438113 1815.936595 -2125.102663 24064 3654.855526
0.065000 0.065258 29411.467372 823.084140 7266.540373 100.055721 3258.398125 33396 3654.855526
0.075000 0.075209 25348.380950 211.378138 6038.782339 516.183119 3204.023754 44596 3654.855526
0.085000 0.085175 21610.721366 752.005260 8741.546957 -252.558260 134.756022 57124 3654.855526
0.095000 0.095157 17893.827551 379.190204 6716.729854 1278.582700 827.524484 71620 3654.855526
0.105000 0.105162 15173.390928 214.317889 3879.614543 -374.039840 -984.921791 87552 3654.855526
0.115000 0.115148 14363.941343 166.047179 4760.380108 386.053351 -249.293893 104524 3654.855526
0.125000 0.125146 12428.100813 239.378952 3126.925385 354.014898 675.732456 124228 3654.855526
0.135000 0.135146 11357.326777 152.809665 2425.428316 7.783402 7.963054 144204 3654.855526
0.145000 0.145132 10128.499926 210.624495 2603.130083 4.239707 -113.939795 166492 3654.855526
0.155000 0.155114 9333.243953 54.234281 1740.348189 156.558462 -724.728703 189964 3654.855526
0.165000 0.165102 8628.152271 128.321054 2417.221558 40.704468 192.836621 215640 3654.855526
0.175000 0.175105 7795.313179 127.921849 1785.494236 92.884671 106.040623 242836 3654.855526
0.185000 0.185097 7037.720132 83.057331 1510.863472 159.803740 147.795738 270556 3654.855526
0.195000 0.195085 6703.950915 104.872580 1544.148498 -82.583972 874.343169 301084 3654.855526
0.205000 0.205080 6069.904441 96.336383 1326.757995 136.901905 273.809788 332628 3654.855526
0.215000 0.215092 5538.375098 66.018080 970.454712 45.123542 553.372058 367216 3654.855526
0.225000 0.225099 5198.029367 88.041108 957.922422 -11.042842 86.762157 400444 3654.855526
0.235000 0.235081 4743.199180 68.680921 746.756126 25.120455 -25.095243 436500 3654.855526
0.245000 0.245077 4446.379680 56.183412 490.627176 76.369517 351.564540 475900 3654.855526
0.255000 0.255082 4185.090933 63.705451 548.932835 -11.961474 325.242115 514900 3654.855526
0.265000 0.265074 3988.359999 32.622931 380.353046 28.950418 -79.270620 555408 3654.855526
0.275000 0.275066 3804.241346 58.221442 256.818519 30.599364 112.129177 598684 3654.855526
0.285000 0.285066 3519.880486 74.623861 208.004091 26.074890 349.033698 643228 3654.855526
0.295000 0.295058 3217.290395 48.410293 154.930965 8.101214 289.542834 688036 3654.855526
