#Data file /home/DATA/sbrieden/Patchy_dr12_mocks/prerecon/original/Patchy-Mocks-DR12CMASS-S-V6C-Portsmouth-mass_0073.dat
#Random file /home/DATA/sbrieden/Patchy_dr12_mocks/prerecon/original/Random-DR12CMASS-S-V6C-x20.dat
#Number of data elements used: 216483
#Number of random elements used: 4288842
#Effective number of data elements weighted by wcol: 216483.000000
#Effective number of random elements weighted by wcol: 4288842.000000
#Effective number of data elements weighted by wcol*wsys: 216483.000000
#Effective number of random elements weighted by wcol*wsys: 4288842.000000
#Effective redshift value from data 0.597696
#Effective redshift value from randoms 0.597190
#Size of the Box 3700.000000 Mpc/h
#Area of the survey used 2525.000000 deg^2
#Value of alpha: 0.050551
#Normalization using data file
#Normalization using density
#Normalization 4.111853
#Shot noise factor 1.000000
#Shot noise value 4951.687827
#Type of Computation: FFT
#Number of grid cells: 512
#Type of Mass Assigment: TSC
#Type of Yamamoto: GridCenter
#Number of Interlacing steps: 2
#Grid Correction: yes
#Value of Om=0.310000
#Quadrupole as L2
#Octopole as L3
#Hexadecapole as L2L2
#k-centerbin	 k-eff	 Monopole-Pshotnoise	 Dipole	 Quadrupole	 Octopole	 Hexadecapole	 number of modes	 Pshotnoise
0.005000 0.007485 63502.975057 -1077.424640 17854.790074 -6510.034266 -30141.104159 846 4951.687827
0.015000 0.016072 62830.964271 260.878602 3169.604770 4688.678743 34020.268933 6012 4951.687827
0.025000 0.025646 61543.234107 1086.525456 18756.625147 698.344923 13892.407347 16172 4951.687827
0.035000 0.035469 47212.648659 1420.586789 25079.812169 859.177811 4331.091780 31764 4951.687827
0.045000 0.045378 37883.085408 650.750330 12945.887449 1514.007102 6588.368001 52164 4951.687827
0.055000 0.055280 30873.380324 354.608383 11355.072438 1153.703130 5209.828693 77396 4951.687827
0.065000 0.065232 27511.580028 185.924287 8027.593483 108.545102 1720.162680 108936 4951.687827
0.075000 0.075229 24048.431914 452.577171 10364.027380 386.615736 1071.075465 144980 4951.687827
0.085000 0.085193 20498.835727 256.515133 7789.353862 394.193571 5053.869722 184854 4951.687827
0.095000 0.095166 17264.147823 275.804567 6596.554681 90.938974 221.239309 232260 4951.687827
0.105000 0.105155 14404.009757 206.722341 5462.429848 101.284980 -659.144481 282884 4951.687827
0.115000 0.115131 13248.322549 109.774201 4494.360647 153.123124 -1276.147366 339084 4951.687827
0.125000 0.125124 11721.323773 134.764127 3923.338000 135.459350 -46.656367 401864 4951.687827
0.135000 0.135125 10578.176323 62.102751 3186.774433 272.109469 868.028102 468084 4951.687827
0.145000 0.145120 9658.723554 137.364452 2453.988627 16.239639 284.210256 539940 4951.687827
0.155000 0.155118 8728.397217 120.211123 2669.112324 -64.939021 -20.146895 617324 4951.687827
0.165000 0.165105 7702.360713 102.233444 2809.091859 101.033865 -49.870028 697452 4951.687827
0.175000 0.175088 7072.486085 72.670022 2157.237400 108.938976 758.666052 785846 4951.687827
0.185000 0.185089 6568.757867 67.248444 1204.769354 18.054029 -203.267281 879528 4951.687827
0.195000 0.195093 5917.518089 77.640377 992.420617 85.286028 181.237554 976596 4951.687827
0.205000 0.205084 5521.574027 54.630828 1073.191950 1.519590 179.473888 1077212 4951.687827
0.215000 0.215076 5117.420698 69.484028 1103.213184 13.382368 428.082496 1186908 4951.687827
0.225000 0.225076 4925.257407 42.315991 899.754257 20.923288 405.971680 1299452 4951.687827
0.235000 0.235073 4618.329392 69.342001 733.460372 23.587202 -106.857595 1417356 4951.687827
0.245000 0.245067 4249.161239 93.370259 600.073789 -21.324028 46.271202 1539600 4951.687827
0.255000 0.255064 3884.067652 34.961761 686.326359 50.472004 575.148804 1669820 4951.687827
0.265000 0.265061 3835.068025 43.783827 499.494663 -14.180693 38.084912 1801086 4951.687827
0.275000 0.275060 3631.690078 61.947275 289.342899 54.633256 189.296619 1942244 4951.687827
0.285000 0.285062 3375.480167 53.372436 235.797915 7.428801 352.315044 2084796 4951.687827
0.295000 0.295057 3258.313838 62.272180 206.674449 -1.144714 257.540201 2231868 4951.687827
