#Data file /home/DATA/sbrieden/Patchy_dr12_mocks/prerecon/original/Patchy-Mocks-DR12LOWZ-N-V5C-Portsmouth-mass_0013.dat
#Random file /home/DATA/sbrieden/Patchy_dr12_mocks/prerecon/original/Random-DR12LOWZ-N-V5C-x20.dat
#Number of data elements used: 231883
#Number of random elements used: 4685323
#Effective number of data elements weighted by wcol: 231883.000000
#Effective number of random elements weighted by wcol: 4685323.000000
#Effective number of data elements weighted by wcol*wsys: 231883.000000
#Effective number of random elements weighted by wcol*wsys: 4685323.000000
#Effective redshift value from data 0.330484
#Effective redshift value from randoms 0.330058
#Size of the Box 2500.000000 Mpc/h
#Area of the survey used 5826.000000 deg^2
#Value of alpha: 0.049549
#Normalization using data file
#Normalization using density
#Normalization 4.302393
#Shot noise factor 1.000000
#Shot noise value 3659.854470
#Type of Computation: FFT
#Number of grid cells: 512
#Type of Mass Assigment: TSC
#Type of Yamamoto: GridCenter
#Number of Interlacing steps: 2
#Grid Correction: yes
#Value of Om=0.310000
#Quadrupole as L2
#Octopole as L3
#Hexadecapole as L2L2
#k-centerbin	 k-eff	 Monopole-Pshotnoise	 Dipole	 Quadrupole	 Octopole	 Hexadecapole	 number of modes	 Pshotnoise
0.005000 0.007385 57543.410899 -10430.884794 -5506.396302 -7400.624090 -7722.245191 250 3659.854470
0.015000 0.016012 61416.548680 3572.997467 16410.880039 -9976.783880 -39653.685645 1852 3659.854470
0.025000 0.025646 67570.121181 713.376198 21511.834957 199.875177 -21346.646705 5020 3659.854470
0.035000 0.035469 53154.675659 2100.950543 21766.819068 3977.631994 2834.505212 9756 3659.854470
0.045000 0.045368 40836.767521 1397.494675 10879.376798 1056.627942 -3812.641284 16108 3659.854470
0.055000 0.055314 35544.057169 434.017957 10180.795848 979.097555 -2060.710832 24064 3659.854470
0.065000 0.065258 31238.498321 431.885799 7056.746622 521.722952 -324.425307 33396 3659.854470
0.075000 0.075209 25832.173991 904.752190 9986.255929 25.071817 -274.564525 44596 3659.854470
0.085000 0.085175 21643.206295 456.996419 7414.945488 213.647554 -4476.913298 57124 3659.854470
0.095000 0.095157 18029.775565 319.806392 7042.303537 571.566894 -2342.489615 71620 3659.854470
0.105000 0.105162 15612.050243 280.764192 5430.450841 702.468010 1627.207810 87552 3659.854470
0.115000 0.115148 14213.892091 251.895592 4020.109553 -154.037923 366.132699 104524 3659.854470
0.125000 0.125146 12823.521882 163.281325 3624.355759 395.172489 10.024312 124228 3659.854470
0.135000 0.135146 11520.519419 250.626958 3248.443831 -30.120250 1003.646853 144204 3659.854470
0.145000 0.145132 10335.347328 140.181205 3116.702794 83.971511 506.926915 166492 3659.854470
0.155000 0.155114 9300.812639 133.507444 2545.195451 170.669508 -251.661643 189964 3659.854470
0.165000 0.165102 8393.507771 121.349032 2476.607619 183.238912 290.157545 215640 3659.854470
0.175000 0.175105 7657.830900 94.675971 1822.278864 -50.706858 -127.777194 242836 3659.854470
0.185000 0.185097 7141.536555 115.934845 1894.569820 92.566073 403.742114 270556 3659.854470
0.195000 0.195085 6420.849624 99.861202 1683.814812 -29.200403 109.659862 301084 3659.854470
0.205000 0.205080 6062.523460 59.399812 1515.368184 119.324955 449.788564 332628 3659.854470
0.215000 0.215092 5588.242388 80.794181 1371.119363 76.634801 315.878198 367216 3659.854470
0.225000 0.225099 5227.996952 53.437784 1024.382282 60.183837 186.646675 400444 3659.854470
0.235000 0.235081 4859.700302 77.119573 666.694911 -0.322881 -156.695887 436500 3659.854470
0.245000 0.245077 4546.346335 52.241041 777.261230 116.668259 216.130909 475900 3659.854470
0.255000 0.255082 4150.054050 69.124889 456.333367 30.066528 265.852242 514900 3659.854470
0.265000 0.265074 3962.483541 49.872017 272.875891 -28.588499 133.042250 555408 3659.854470
0.275000 0.275066 3740.832908 56.420109 398.360194 10.641433 200.780757 598684 3659.854470
0.285000 0.285066 3517.298363 51.081763 239.445500 16.732799 261.208984 643228 3659.854470
0.295000 0.295058 3364.040750 53.751679 221.215395 36.534000 277.613649 688036 3659.854470
