#Data file /home/DATA/sbrieden/Patchy_dr12_mocks/prerecon/original/Patchy-Mocks-DR12LOWZ-N-V5C-Portsmouth-mass_0073.dat
#Random file /home/DATA/sbrieden/Patchy_dr12_mocks/prerecon/original/Random-DR12LOWZ-N-V5C-x20.dat
#Number of data elements used: 234448
#Number of random elements used: 4685323
#Effective number of data elements weighted by wcol: 234448.000000
#Effective number of random elements weighted by wcol: 4685323.000000
#Effective number of data elements weighted by wcol*wsys: 234448.000000
#Effective number of random elements weighted by wcol*wsys: 4685323.000000
#Effective redshift value from data 0.329044
#Effective redshift value from randoms 0.330058
#Size of the Box 2500.000000 Mpc/h
#Area of the survey used 5826.000000 deg^2
#Value of alpha: 0.049943
#Normalization using data file
#Normalization using density
#Normalization 4.342000
#Shot noise factor 1.000000
#Shot noise value 3644.331817
#Type of Computation: FFT
#Number of grid cells: 512
#Type of Mass Assigment: TSC
#Type of Yamamoto: GridCenter
#Number of Interlacing steps: 2
#Grid Correction: yes
#Value of Om=0.310000
#Quadrupole as L2
#Octopole as L3
#Hexadecapole as L2L2
#k-centerbin	 k-eff	 Monopole-Pshotnoise	 Dipole	 Quadrupole	 Octopole	 Hexadecapole	 number of modes	 Pshotnoise
0.005000 0.007385 82950.016852 3283.301033 19047.046125 -18918.107869 -41554.367420 250 3644.331817
0.015000 0.016012 64478.678985 968.692546 26107.826127 -5048.652460 -19465.189889 1852 3644.331817
0.025000 0.025646 64718.230077 1133.491066 25983.442631 3960.596424 -6447.944891 5020 3644.331817
0.035000 0.035469 56326.756005 2102.666212 26058.476567 3557.227653 -9654.743561 9756 3644.331817
0.045000 0.045368 42966.172733 1711.287424 20106.201236 2651.394667 12399.867854 16108 3644.331817
0.055000 0.055314 32529.110370 831.825000 12323.304225 1650.870127 567.878062 24064 3644.331817
0.065000 0.065258 28318.648327 633.996694 10533.772402 -441.050299 -2778.678986 33396 3644.331817
0.075000 0.075209 26513.240821 424.639728 10674.173017 1029.721687 -857.561930 44596 3644.331817
0.085000 0.085175 20950.254804 524.112824 7249.390718 459.874830 614.333241 57124 3644.331817
0.095000 0.095157 18848.655939 423.923013 6011.176846 94.158198 -1561.628020 71620 3644.331817
0.105000 0.105162 15610.557005 319.650564 5048.032511 324.020957 212.995676 87552 3644.331817
0.115000 0.115148 14321.124166 157.636504 4888.904106 258.478631 -255.504172 104524 3644.331817
0.125000 0.125146 12943.977929 168.724712 3231.670457 233.482889 -638.557509 124228 3644.331817
0.135000 0.135146 11405.820607 262.732337 3392.131828 -45.546599 734.847679 144204 3644.331817
0.145000 0.145132 10200.949286 152.483552 3248.475740 220.485260 342.812369 166492 3644.331817
0.155000 0.155114 9051.188679 114.025160 2638.667505 155.837843 -551.416365 189964 3644.331817
0.165000 0.165102 8302.616197 130.476486 2368.795843 24.561469 448.669710 215640 3644.331817
0.175000 0.175105 7559.551026 95.395778 1783.456362 140.608575 -71.484237 242836 3644.331817
0.185000 0.185097 7294.196373 41.110600 1621.857597 159.693929 -113.003617 270556 3644.331817
0.195000 0.195085 6619.566313 124.510071 1370.147316 -70.704476 393.597501 301084 3644.331817
0.205000 0.205080 6126.368254 99.339600 1174.232862 66.848779 -384.495387 332628 3644.331817
0.215000 0.215092 5558.707127 73.447421 908.756422 88.074627 196.894639 367216 3644.331817
0.225000 0.225099 5226.377170 77.171525 576.803769 53.706823 351.149655 400444 3644.331817
0.235000 0.235081 4801.474843 58.821464 690.394365 -47.184089 -120.842417 436500 3644.331817
0.245000 0.245077 4517.147980 68.180331 592.562367 80.986836 356.763461 475900 3644.331817
0.255000 0.255082 4198.961216 60.955065 482.040657 0.904933 322.461261 514900 3644.331817
0.265000 0.265074 4012.098088 59.321427 258.802142 21.995484 24.713760 555408 3644.331817
0.275000 0.275066 3724.204184 56.677618 313.249917 1.578568 228.020567 598684 3644.331817
0.285000 0.285066 3474.041573 57.607677 256.129994 34.105377 144.895751 643228 3644.331817
0.295000 0.295058 3286.305941 48.377461 127.239143 -0.924705 301.587167 688036 3644.331817
