#Data file /home/DATA/sbrieden/Patchy_dr12_mocks/prerecon/original/Patchy-Mocks-DR12LOWZ-N-V5C-Portsmouth-mass_0003.dat
#Random file /home/DATA/sbrieden/Patchy_dr12_mocks/prerecon/original/Random-DR12LOWZ-N-V5C-x20.dat
#Number of data elements used: 235120
#Number of random elements used: 4685323
#Effective number of data elements weighted by wcol: 235120.000000
#Effective number of random elements weighted by wcol: 4685323.000000
#Effective number of data elements weighted by wcol*wsys: 235120.000000
#Effective number of random elements weighted by wcol*wsys: 4685323.000000
#Effective redshift value from data 0.330122
#Effective redshift value from randoms 0.330058
#Size of the Box 2500.000000 Mpc/h
#Area of the survey used 5826.000000 deg^2
#Value of alpha: 0.050178
#Normalization using data file
#Normalization using density
#Normalization 4.358643
#Shot noise factor 1.000000
#Shot noise value 3656.932187
#Type of Computation: FFT
#Number of grid cells: 512
#Type of Mass Assigment: TSC
#Type of Yamamoto: GridCenter
#Number of Interlacing steps: 2
#Grid Correction: yes
#Value of Om=0.310000
#Quadrupole as L2
#Octopole as L3
#Hexadecapole as L2L2
#k-centerbin	 k-eff	 Monopole-Pshotnoise	 Dipole	 Quadrupole	 Octopole	 Hexadecapole	 number of modes	 Pshotnoise
0.005000 0.007385 102575.846432 9551.796441 -27671.076389 -41060.075403 -85995.562402 250 3656.932187
0.015000 0.016012 54632.496869 1243.577551 19188.469525 4802.570998 20095.345749 1852 3656.932187
0.025000 0.025646 59647.785090 606.278598 21161.236692 -2194.897801 10086.242789 5020 3656.932187
0.035000 0.035469 52630.997488 1907.730564 24409.453508 6654.420569 11250.213979 9756 3656.932187
0.045000 0.045368 38211.083591 1318.484472 16798.586441 2025.259825 5853.812149 16108 3656.932187
0.055000 0.055314 32214.881510 696.559654 7645.148911 1091.730495 -1623.858308 24064 3656.932187
0.065000 0.065258 28555.789793 596.228397 5925.028373 -48.617263 919.838656 33396 3656.932187
0.075000 0.075209 24543.915249 671.337535 9819.460182 -107.016865 3922.404828 44596 3656.932187
0.085000 0.085175 21189.251266 288.256775 9497.490582 1003.244294 179.548637 57124 3656.932187
0.095000 0.095157 17876.097454 348.894061 3972.656887 766.505804 -1465.870779 71620 3656.932187
0.105000 0.105162 15037.050752 365.986362 3910.057544 -98.648908 2717.028056 87552 3656.932187
0.115000 0.115148 13639.990660 136.784923 4795.167272 591.906719 1060.096962 104524 3656.932187
0.125000 0.125146 12561.734464 167.196923 4198.502688 -245.865133 800.321560 124228 3656.932187
0.135000 0.135146 11687.633405 175.642656 4000.238378 432.472586 372.359540 144204 3656.932187
0.145000 0.145132 10112.827869 215.633662 3075.749619 -24.145182 104.476026 166492 3656.932187
0.155000 0.155114 9143.740991 106.011705 2262.205066 157.848638 -87.332043 189964 3656.932187
0.165000 0.165102 8222.279730 182.684208 2201.592604 49.692458 157.719067 215640 3656.932187
0.175000 0.175105 7574.853330 62.275925 1976.512654 47.509209 -210.863785 242836 3656.932187
0.185000 0.185097 6971.634198 82.123665 1549.319770 113.515255 -44.555720 270556 3656.932187
0.195000 0.195085 6476.825810 123.250092 1474.732952 72.705213 499.202765 301084 3656.932187
0.205000 0.205080 5880.347235 46.552818 1407.360215 -7.121694 40.915697 332628 3656.932187
0.215000 0.215092 5606.457238 87.209287 1145.904085 99.744671 -160.123985 367216 3656.932187
0.225000 0.225099 5152.901187 77.427028 1053.122117 -39.922418 -42.781757 400444 3656.932187
0.235000 0.235081 4915.307142 50.840174 1080.618929 111.417763 85.336877 436500 3656.932187
0.245000 0.245077 4601.991598 70.328387 751.764428 17.965230 270.087110 475900 3656.932187
0.255000 0.255082 4240.632739 66.789990 473.744471 71.534141 353.303190 514900 3656.932187
0.265000 0.265074 3938.095736 55.115142 468.361649 -39.134682 289.834022 555408 3656.932187
0.275000 0.275066 3765.909157 50.976610 298.696664 66.609271 172.190925 598684 3656.932187
0.285000 0.285066 3476.110691 55.890148 200.247406 -12.788204 198.335604 643228 3656.932187
0.295000 0.295058 3313.873326 48.958255 212.803323 26.662204 156.978075 688036 3656.932187
