#Data file /home/DATA/sbrieden/Patchy_dr12_mocks/prerecon/original/Patchy-Mocks-DR12LOWZ-S-V5C-Portsmouth-mass_0046.dat
#Random file /home/DATA/sbrieden/Patchy_dr12_mocks/prerecon/original/Random-DR12LOWZ-S-V5C-x20.dat
#Number of data elements used: 100629
#Number of random elements used: 2007904
#Effective number of data elements weighted by wcol: 100629.000000
#Effective number of random elements weighted by wcol: 2007904.000000
#Effective number of data elements weighted by wcol*wsys: 100629.000000
#Effective number of random elements weighted by wcol*wsys: 2007904.000000
#Effective redshift value from data 0.330371
#Effective redshift value from randoms 0.330155
#Size of the Box 2500.000000 Mpc/h
#Area of the survey used 2501.000000 deg^2
#Value of alpha: 0.050229
#Normalization using data file
#Normalization using density
#Normalization 1.868683
#Shot noise factor 1.000000
#Shot noise value 3666.122159
#Type of Computation: FFT
#Number of grid cells: 512
#Type of Mass Assigment: TSC
#Type of Yamamoto: GridCenter
#Number of Interlacing steps: 2
#Grid Correction: yes
#Value of Om=0.310000
#Quadrupole as L2
#Octopole as L3
#Hexadecapole as L2L2
#k-centerbin	 k-eff	 Monopole-Pshotnoise	 Dipole	 Quadrupole	 Octopole	 Hexadecapole	 number of modes	 Pshotnoise
0.005000 0.007385 25411.550562 -4776.750854 16699.552161 -3069.292140 -14970.703674 250 3666.122159
0.015000 0.016012 83010.708937 -1815.454412 -26322.860449 -11052.095140 -36126.244333 1852 3666.122159
0.025000 0.025646 62146.549259 2178.750657 3673.515874 -159.580111 22606.048803 5020 3666.122159
0.035000 0.035469 49774.550930 1250.840519 6693.331671 3874.022759 9707.765076 9756 3666.122159
0.045000 0.045368 38803.233244 1981.141759 14279.512938 -1707.488638 -2541.028995 16108 3666.122159
0.055000 0.055314 30991.056880 723.366520 8685.534818 597.567228 -6266.256284 24064 3666.122159
0.065000 0.065258 28511.527968 106.357328 12680.514334 328.726224 -5194.995683 33396 3666.122159
0.075000 0.075209 25707.225616 899.907939 10617.784885 679.818212 -1880.727555 44596 3666.122159
0.085000 0.085175 21358.406637 312.980849 10287.801783 1191.011997 1993.964364 57124 3666.122159
0.095000 0.095157 18329.230121 394.735185 5792.384250 480.193355 2607.324414 71620 3666.122159
0.105000 0.105162 15535.914383 289.355831 5868.371419 181.595601 -310.610443 87552 3666.122159
0.115000 0.115148 13869.697389 153.884768 5130.520112 -5.465657 194.536135 104524 3666.122159
0.125000 0.125146 13549.974209 153.947084 4781.908173 436.362255 -2068.396442 124228 3666.122159
0.135000 0.135146 12115.830982 238.861524 3707.814466 86.102920 329.204901 144204 3666.122159
0.145000 0.145132 10472.861308 168.280097 2228.891700 429.045531 -113.808325 166492 3666.122159
0.155000 0.155114 9043.054771 146.436204 1425.442054 -163.701137 57.859849 189964 3666.122159
0.165000 0.165102 8685.768249 114.745202 2060.602576 91.737436 -1095.617765 215640 3666.122159
0.175000 0.175105 7771.876371 127.188192 1864.066960 6.595483 -434.261034 242836 3666.122159
0.185000 0.185097 7145.362851 101.242147 1665.162816 243.420786 93.796586 270556 3666.122159
0.195000 0.195085 6570.973993 91.933505 1265.316125 -9.067729 110.222682 301084 3666.122159
0.205000 0.205080 5913.782856 57.188320 1230.277376 93.550163 276.830512 332628 3666.122159
0.215000 0.215092 5648.704205 83.113698 699.639900 -28.273701 -156.127593 367216 3666.122159
0.225000 0.225099 5165.423061 73.456308 623.427994 63.598331 258.029889 400444 3666.122159
0.235000 0.235081 4859.837057 82.877773 1038.363624 -5.004927 658.163382 436500 3666.122159
0.245000 0.245077 4634.169795 62.841980 869.676463 -85.184384 -279.164912 475900 3666.122159
0.255000 0.255082 4201.961934 46.282729 744.581108 150.253358 -439.225208 514900 3666.122159
0.265000 0.265074 3943.688475 61.109214 303.367301 23.120396 143.446763 555408 3666.122159
0.275000 0.275066 3846.904278 35.905938 288.524074 -4.613604 73.211558 598684 3666.122159
0.285000 0.285066 3582.358396 62.761742 333.231161 37.969662 -72.820119 643228 3666.122159
0.295000 0.295058 3347.372012 63.650925 44.343285 6.223590 46.167982 688036 3666.122159
