#Data file /home/DATA/sbrieden/Patchy_dr12_mocks/prerecon/original/Patchy-Mocks-DR12CMASS-N-V6C-Portsmouth-mass_0053.dat
#Random file /home/DATA/sbrieden/Patchy_dr12_mocks/prerecon/original/Random-DR12CMASS-N-V6C-x20.dat
#Number of data elements used: 588334
#Number of random elements used: 11797448
#Effective number of data elements weighted by wcol: 588334.000000
#Effective number of random elements weighted by wcol: 11797448.000000
#Effective number of data elements weighted by wcol*wsys: 588334.000000
#Effective number of random elements weighted by wcol*wsys: 11797448.000000
#Effective redshift value from data 0.597996
#Effective redshift value from randoms 0.597992
#Size of the Box 3700.000000 Mpc/h
#Area of the survey used 6851.000000 deg^2
#Value of alpha: 0.049916
#Normalization using data file
#Normalization using density
#Normalization 11.061715
#Shot noise factor 1.000000
#Shot noise value 4950.756041
#Type of Computation: FFT
#Number of grid cells: 512
#Type of Mass Assigment: TSC
#Type of Yamamoto: GridCenter
#Number of Interlacing steps: 2
#Grid Correction: yes
#Value of Om=0.310000
#Quadrupole as L2
#Octopole as L3
#Hexadecapole as L2L2
#k-centerbin	 k-eff	 Monopole-Pshotnoise	 Dipole	 Quadrupole	 Octopole	 Hexadecapole	 number of modes	 Pshotnoise
0.005000 0.007485 78240.705598 1375.658535 25471.499516 5071.443512 18397.672567 846 4950.756041
0.015000 0.016072 68626.122950 -191.038842 26147.215824 6863.716947 21934.659920 6012 4950.756041
0.025000 0.025646 64020.498790 2237.677306 20240.372236 -1365.539225 -20259.932309 16172 4950.756041
0.035000 0.035469 49435.453493 821.545538 18809.677394 2174.186705 -1956.524607 31764 4950.756041
0.045000 0.045378 38181.861623 657.073373 17227.469258 974.568077 4774.821347 52164 4950.756041
0.055000 0.055280 31350.313206 487.718968 12045.603368 580.790070 254.553497 77396 4950.756041
0.065000 0.065232 27579.835102 388.004916 11078.448269 265.074132 859.992877 108936 4950.756041
0.075000 0.075229 24406.928282 297.240480 9440.113443 608.027123 54.257218 144980 4950.756041
0.085000 0.085193 19809.554183 275.201588 7058.956038 246.209316 163.760284 184854 4950.756041
0.095000 0.095166 17243.778586 237.413313 5651.956091 242.943830 729.984117 232260 4950.756041
0.105000 0.105155 14484.288576 164.387109 5117.126690 168.451872 34.873132 282884 4950.756041
0.115000 0.115131 12853.747439 146.776696 4414.811338 210.402932 1170.449488 339084 4950.756041
0.125000 0.125124 11790.291417 154.287388 4071.448871 48.481324 941.602511 401864 4950.756041
0.135000 0.135125 10846.768037 84.593689 3518.087336 49.565787 588.146099 468084 4950.756041
0.145000 0.145120 9800.831161 102.891222 2858.835059 148.567474 -28.684754 539940 4950.756041
0.155000 0.155118 8580.610520 137.486786 2438.835033 78.949958 327.381909 617324 4950.756041
0.165000 0.165105 7718.648961 60.384214 2215.112842 33.985723 190.819164 697452 4950.756041
0.175000 0.175088 7147.483151 99.981266 2238.496977 47.370634 174.229316 785846 4950.756041
0.185000 0.185089 6563.592799 64.664869 1908.220295 20.658248 630.383019 879528 4950.756041
0.195000 0.195093 6196.407914 53.287383 1511.485150 100.389407 415.899335 976596 4950.756041
0.205000 0.205084 5725.456239 87.253149 1085.360916 12.251090 292.915790 1077212 4950.756041
0.215000 0.215076 5245.504956 60.785814 871.454344 34.168318 215.493235 1186908 4950.756041
0.225000 0.225076 4951.542850 69.812279 910.705849 -34.850799 231.283975 1299452 4950.756041
0.235000 0.235073 4603.148696 60.875270 790.843442 43.895214 82.167002 1417356 4950.756041
0.245000 0.245067 4308.516987 63.302332 742.587069 26.239119 237.324703 1539600 4950.756041
0.255000 0.255064 4059.723995 47.109258 590.927315 24.420208 209.043763 1669820 4950.756041
0.265000 0.265061 3826.766096 68.234708 390.170024 11.741476 109.677113 1801086 4950.756041
0.275000 0.275060 3553.886275 53.370527 319.952641 16.392234 248.410113 1942244 4950.756041
0.285000 0.285062 3369.707950 55.781047 268.188141 0.784077 265.625227 2084796 4950.756041
0.295000 0.295057 3201.490240 56.193789 97.331138 26.115184 307.283141 2231868 4950.756041
