#Data file /home/DATA/sbrieden/Patchy_dr12_mocks/prerecon/original/Patchy-Mocks-DR12LOWZ-S-V5C-Portsmouth-mass_0008.dat
#Random file /home/DATA/sbrieden/Patchy_dr12_mocks/prerecon/original/Random-DR12LOWZ-S-V5C-x20.dat
#Number of data elements used: 100530
#Number of random elements used: 2007904
#Effective number of data elements weighted by wcol: 100530.000000
#Effective number of random elements weighted by wcol: 2007904.000000
#Effective number of data elements weighted by wcol*wsys: 100530.000000
#Effective number of random elements weighted by wcol*wsys: 2007904.000000
#Effective redshift value from data 0.329577
#Effective redshift value from randoms 0.330155
#Size of the Box 2500.000000 Mpc/h
#Area of the survey used 2501.000000 deg^2
#Value of alpha: 0.050034
#Normalization using data file
#Normalization using density
#Normalization 1.863295
#Shot noise factor 1.000000
#Shot noise value 3651.934611
#Type of Computation: FFT
#Number of grid cells: 512
#Type of Mass Assigment: TSC
#Type of Yamamoto: GridCenter
#Number of Interlacing steps: 2
#Grid Correction: yes
#Value of Om=0.310000
#Quadrupole as L2
#Octopole as L3
#Hexadecapole as L2L2
#k-centerbin	 k-eff	 Monopole-Pshotnoise	 Dipole	 Quadrupole	 Octopole	 Hexadecapole	 number of modes	 Pshotnoise
0.005000 0.007385 57239.355072 12472.210863 -1642.624625 -31894.257527 -40931.143159 250 3651.934611
0.015000 0.016012 73987.139084 -729.218954 20977.646603 -6542.076198 -36575.500666 1852 3651.934611
0.025000 0.025646 58014.741307 2336.389020 30588.792822 8177.821148 5895.090523 5020 3651.934611
0.035000 0.035469 54813.629611 1549.300141 3085.845523 -2886.733520 -9629.750695 9756 3651.934611
0.045000 0.045368 40775.914719 1434.631326 9237.759024 1539.107818 -13162.097951 16108 3651.934611
0.055000 0.055314 32319.712091 730.266929 13309.479324 188.244861 625.780857 24064 3651.934611
0.065000 0.065258 28521.231129 3.524841 7168.761150 431.653299 -5165.590535 33396 3651.934611
0.075000 0.075209 26153.143507 784.876743 7758.775961 599.353323 -737.199902 44596 3651.934611
0.085000 0.085175 20505.335028 534.165999 4130.102452 449.927367 -2018.471309 57124 3651.934611
0.095000 0.095157 17928.433218 195.436642 1340.208531 -45.343103 -908.114886 71620 3651.934611
0.105000 0.105162 16186.226050 377.812991 3496.435634 50.225558 2212.432134 87552 3651.934611
0.115000 0.115148 14294.381294 397.309829 4769.558151 280.873323 1048.418580 104524 3651.934611
0.125000 0.125146 12233.698019 -12.865186 2805.009362 98.331742 1544.955689 124228 3651.934611
0.135000 0.135146 11442.991903 299.266324 2402.850917 129.690810 -290.655744 144204 3651.934611
0.145000 0.145132 9866.678443 126.062787 2319.356042 318.826157 677.326596 166492 3651.934611
0.155000 0.155114 8883.480627 179.068579 1942.267633 -160.741909 667.758362 189964 3651.934611
0.165000 0.165102 7851.473186 113.377670 1645.744675 85.284061 219.770826 215640 3651.934611
0.175000 0.175105 7646.900037 42.875887 2003.860733 165.785782 365.419953 242836 3651.934611
0.185000 0.185097 7076.267961 128.549376 1421.110231 -17.136850 401.381075 270556 3651.934611
0.195000 0.195085 6444.026016 72.962772 1443.934504 70.991716 8.253133 301084 3651.934611
0.205000 0.205080 5851.041545 95.382062 745.030584 101.817415 -173.354764 332628 3651.934611
0.215000 0.215092 5417.300011 90.106248 1131.470008 -144.503113 570.221656 367216 3651.934611
0.225000 0.225099 5224.447649 38.453395 817.909009 139.036450 -149.747905 400444 3651.934611
0.235000 0.235081 4863.664793 76.916673 477.434176 69.884514 8.413197 436500 3651.934611
0.245000 0.245077 4456.893126 35.162550 303.835524 64.245983 275.632032 475900 3651.934611
0.255000 0.255082 4168.622788 72.943199 243.236764 -16.329100 274.759880 514900 3651.934611
0.265000 0.265074 3914.869712 47.621872 -2.521011 40.179413 111.556333 555408 3651.934611
0.275000 0.275066 3730.043179 60.639500 -47.472887 -21.792553 243.189330 598684 3651.934611
0.285000 0.285066 3504.647840 48.963080 -168.956467 13.169034 113.044814 643228 3651.934611
0.295000 0.295058 3319.637529 58.398273 -122.847075 -16.202538 65.118993 688036 3651.934611
