#Data file /home/DATA/sbrieden/Patchy_dr12_mocks/prerecon/original/Patchy-Mocks-DR12CMASS-S-V6C-Portsmouth-mass_0022.dat
#Random file /home/DATA/sbrieden/Patchy_dr12_mocks/prerecon/original/Random-DR12CMASS-S-V6C-x20.dat
#Number of data elements used: 211892
#Number of random elements used: 4288842
#Effective number of data elements weighted by wcol: 211892.000000
#Effective number of random elements weighted by wcol: 4288842.000000
#Effective number of data elements weighted by wcol*wsys: 211892.000000
#Effective number of random elements weighted by wcol*wsys: 4288842.000000
#Effective redshift value from data 0.598141
#Effective redshift value from randoms 0.597190
#Size of the Box 3700.000000 Mpc/h
#Area of the survey used 2525.000000 deg^2
#Value of alpha: 0.049545
#Normalization using data file
#Normalization using density
#Normalization 4.026438
#Shot noise factor 1.000000
#Shot noise value 4960.234159
#Type of Computation: FFT
#Number of grid cells: 512
#Type of Mass Assigment: TSC
#Type of Yamamoto: GridCenter
#Number of Interlacing steps: 2
#Grid Correction: yes
#Value of Om=0.310000
#Quadrupole as L2
#Octopole as L3
#Hexadecapole as L2L2
#k-centerbin	 k-eff	 Monopole-Pshotnoise	 Dipole	 Quadrupole	 Octopole	 Hexadecapole	 number of modes	 Pshotnoise
0.005000 0.007485 49852.734686 -369.159580 -4011.543687 -8957.174412 -18549.555012 846 4960.234159
0.015000 0.016072 66261.042619 450.304340 33206.302352 -3044.296217 -24379.407462 6012 4960.234159
0.025000 0.025646 63956.728737 885.272435 40164.648664 7453.258102 9611.845657 16172 4960.234159
0.035000 0.035469 49107.188148 1467.035969 24172.092956 2047.192802 20996.911359 31764 4960.234159
0.045000 0.045378 36805.569713 487.155905 16187.527191 984.978145 3301.572940 52164 4960.234159
0.055000 0.055280 32193.905286 455.754144 16232.591887 399.542396 200.968819 77396 4960.234159
0.065000 0.065232 28407.395544 409.891502 11408.122806 736.212573 -2886.984081 108936 4960.234159
0.075000 0.075229 23710.065569 307.388655 10182.700260 97.743171 107.700055 144980 4960.234159
0.085000 0.085193 19906.251830 339.996007 7444.413071 398.587049 -297.741621 184854 4960.234159
0.095000 0.095166 16833.657797 216.301792 6257.362375 297.673429 -99.853188 232260 4960.234159
0.105000 0.105155 14454.547169 194.021004 4940.943970 14.836837 -317.193752 282884 4960.234159
0.115000 0.115131 13388.375846 104.186187 3759.266216 312.378443 368.471377 339084 4960.234159
0.125000 0.125124 11759.080004 132.473861 3718.863850 48.019302 807.182834 401864 4960.234159
0.135000 0.135125 11038.750135 90.626490 3152.790903 155.777976 539.538253 468084 4960.234159
0.145000 0.145120 9892.068028 139.949912 2887.402870 24.546640 640.873288 539940 4960.234159
0.155000 0.155118 8485.750177 126.095229 2886.618713 21.287033 64.055619 617324 4960.234159
0.165000 0.165105 7677.636668 82.261183 2450.962017 39.426582 230.387437 697452 4960.234159
0.175000 0.175088 7130.979930 62.829022 1981.496900 111.334787 -59.033441 785846 4960.234159
0.185000 0.185089 6733.013769 62.829056 1306.476257 2.971113 -110.974467 879528 4960.234159
0.195000 0.195093 6168.024239 93.590261 1559.882340 28.222584 45.582136 976596 4960.234159
0.205000 0.205084 5815.040350 44.833765 1241.749180 38.231325 -237.278444 1077212 4960.234159
0.215000 0.215076 5318.968066 74.022078 985.392620 54.271897 41.098317 1186908 4960.234159
0.225000 0.225076 4960.889365 68.181159 915.214185 -12.791170 -14.207617 1299452 4960.234159
0.235000 0.235073 4582.955949 54.883133 787.947230 53.609631 -26.874181 1417356 4960.234159
0.245000 0.245067 4246.189112 62.319051 703.660505 39.017977 165.287329 1539600 4960.234159
0.255000 0.255064 4005.782062 57.134347 496.235866 -14.362259 194.121752 1669820 4960.234159
0.265000 0.265061 3834.848906 49.455979 374.309113 35.122130 175.107794 1801086 4960.234159
0.275000 0.275060 3639.739927 72.321111 169.177876 -2.105538 282.829988 1942244 4960.234159
0.285000 0.285062 3367.514697 47.020854 179.540032 36.357354 154.407014 2084796 4960.234159
0.295000 0.295057 3208.597892 60.207900 -30.391430 -21.639665 297.551976 2231868 4960.234159
