#Data file /home/DATA/sbrieden/Patchy_dr12_mocks/prerecon/original/Patchy-Mocks-DR12LOWZ-S-V5C-Portsmouth-mass_0002.dat
#Random file /home/DATA/sbrieden/Patchy_dr12_mocks/prerecon/original/Random-DR12LOWZ-S-V5C-x20.dat
#Number of data elements used: 100922
#Number of random elements used: 2007904
#Effective number of data elements weighted by wcol: 100922.000000
#Effective number of random elements weighted by wcol: 2007904.000000
#Effective number of data elements weighted by wcol*wsys: 100922.000000
#Effective number of random elements weighted by wcol*wsys: 2007904.000000
#Effective redshift value from data 0.331189
#Effective redshift value from randoms 0.330155
#Size of the Box 2500.000000 Mpc/h
#Area of the survey used 2501.000000 deg^2
#Value of alpha: 0.050325
#Normalization using data file
#Normalization using density
#Normalization 1.872439
#Shot noise factor 1.000000
#Shot noise value 3665.299403
#Type of Computation: FFT
#Number of grid cells: 512
#Type of Mass Assigment: TSC
#Type of Yamamoto: GridCenter
#Number of Interlacing steps: 2
#Grid Correction: yes
#Value of Om=0.310000
#Quadrupole as L2
#Octopole as L3
#Hexadecapole as L2L2
#k-centerbin	 k-eff	 Monopole-Pshotnoise	 Dipole	 Quadrupole	 Octopole	 Hexadecapole	 number of modes	 Pshotnoise
0.005000 0.007385 60357.909492 1784.924324 24971.654326 -26396.124270 -47493.960094 250 3665.299403
0.015000 0.016012 73893.878285 695.653540 40868.379096 11102.800593 -37814.897000 1852 3665.299403
0.025000 0.025646 63988.886697 1583.802595 12787.856288 1633.450357 -5220.248881 5020 3665.299403
0.035000 0.035469 52283.919905 2374.041591 27601.048040 3621.627936 13741.180761 9756 3665.299403
0.045000 0.045368 45182.769833 482.070981 14947.202585 679.793910 -8343.914479 16108 3665.299403
0.055000 0.055314 35447.032059 1168.431794 14906.763785 1049.300146 247.176736 24064 3665.299403
0.065000 0.065258 28509.914639 773.414920 11207.278353 688.955462 -3860.102416 33396 3665.299403
0.075000 0.075209 25539.264705 581.874835 7959.025665 141.690261 -2690.562850 44596 3665.299403
0.085000 0.085175 21273.395304 467.769578 7629.759237 939.513625 1558.633014 57124 3665.299403
0.095000 0.095157 18444.223898 237.978216 4395.854751 161.227298 350.164982 71620 3665.299403
0.105000 0.105162 16252.088557 258.220455 6079.609569 504.774885 2196.072743 87552 3665.299403
0.115000 0.115148 14454.502622 282.453965 4574.092986 386.676120 1386.687147 104524 3665.299403
0.125000 0.125146 12841.260796 232.800293 4406.521679 -163.069238 1644.062076 124228 3665.299403
0.135000 0.135146 12381.858064 146.288765 4949.763616 270.983305 720.344958 144204 3665.299403
0.145000 0.145132 10700.055089 192.035792 3145.281527 297.836741 1328.178383 166492 3665.299403
0.155000 0.155114 9233.935621 167.210711 2952.827756 148.543477 1301.378747 189964 3665.299403
0.165000 0.165102 8460.413868 105.522030 2639.167543 -24.295129 825.908673 215640 3665.299403
0.175000 0.175105 7763.795768 106.396781 1882.759444 195.575612 528.467549 242836 3665.299403
0.185000 0.185097 7396.308574 47.981874 1451.354533 -55.781750 -138.695067 270556 3665.299403
0.195000 0.195085 6728.620415 155.040896 1619.920876 8.534796 -385.911532 301084 3665.299403
0.205000 0.205080 6195.824324 31.501699 1633.392756 186.453885 44.068360 332628 3665.299403
0.215000 0.215092 5580.632258 116.475585 1108.642376 -33.508059 379.956739 367216 3665.299403
0.225000 0.225099 5226.061418 102.625381 1160.031777 14.780690 153.635275 400444 3665.299403
0.235000 0.235081 4854.296612 39.861972 1253.309432 40.270296 120.478864 436500 3665.299403
0.245000 0.245077 4514.505329 49.097612 809.664877 111.893460 15.729628 475900 3665.299403
0.255000 0.255082 4312.747037 48.710721 484.200175 8.320028 151.881419 514900 3665.299403
0.265000 0.265074 4105.949902 66.889613 501.457705 43.013343 309.340473 555408 3665.299403
0.275000 0.275066 3777.728548 56.336209 415.729120 18.638876 202.491338 598684 3665.299403
0.285000 0.285066 3635.780983 9.090797 -7.425859 30.565355 211.051508 643228 3665.299403
0.295000 0.295058 3357.158590 103.647646 172.388489 -35.548198 156.031183 688036 3665.299403
