#Data file /home/DATA/sbrieden/Patchy_dr12_mocks/prerecon/original/Patchy-Mocks-DR12CMASS-S-V6C-Portsmouth-mass_0047.dat
#Random file /home/DATA/sbrieden/Patchy_dr12_mocks/prerecon/original/Random-DR12CMASS-S-V6C-x20.dat
#Number of data elements used: 215410
#Number of random elements used: 4288842
#Effective number of data elements weighted by wcol: 215410.000000
#Effective number of random elements weighted by wcol: 4288842.000000
#Effective number of data elements weighted by wcol*wsys: 215410.000000
#Effective number of random elements weighted by wcol*wsys: 4288842.000000
#Effective redshift value from data 0.597143
#Effective redshift value from randoms 0.597190
#Size of the Box 3700.000000 Mpc/h
#Area of the survey used 2525.000000 deg^2
#Value of alpha: 0.050190
#Normalization using data file
#Normalization using density
#Normalization 4.088023
#Shot noise factor 1.000000
#Shot noise value 4929.779444
#Type of Computation: FFT
#Number of grid cells: 512
#Type of Mass Assigment: TSC
#Type of Yamamoto: GridCenter
#Number of Interlacing steps: 2
#Grid Correction: yes
#Value of Om=0.310000
#Quadrupole as L2
#Octopole as L3
#Hexadecapole as L2L2
#k-centerbin	 k-eff	 Monopole-Pshotnoise	 Dipole	 Quadrupole	 Octopole	 Hexadecapole	 number of modes	 Pshotnoise
0.005000 0.007485 57857.984160 -5721.982741 -16030.712747 -1190.849130 -6250.971517 846 4929.779444
0.015000 0.016072 75981.264878 747.393186 14957.548743 6712.166995 27116.780509 6012 4929.779444
0.025000 0.025646 59504.772078 2098.797246 25168.391898 2751.638817 24923.947331 16172 4929.779444
0.035000 0.035469 43145.219199 882.977429 12322.897258 1032.177182 15694.984843 31764 4929.779444
0.045000 0.045378 35324.299798 542.770300 19934.681980 1016.785893 5545.099584 52164 4929.779444
0.055000 0.055280 32466.791635 459.248835 6879.479677 837.031488 3930.705961 77396 4929.779444
0.065000 0.065232 28204.580253 240.096284 6026.142480 113.761872 -1821.814682 108936 4929.779444
0.075000 0.075229 23706.306321 341.444340 7071.441335 11.649135 -306.179383 144980 4929.779444
0.085000 0.085193 20354.325875 222.699771 6322.666772 532.588709 -2132.497009 184854 4929.779444
0.095000 0.095166 17167.025843 264.731730 5189.661797 179.239675 1487.178371 232260 4929.779444
0.105000 0.105155 14579.432216 212.558447 4193.401481 28.922338 560.166402 282884 4929.779444
0.115000 0.115131 13355.092614 151.882328 4541.726475 -7.315357 383.760373 339084 4929.779444
0.125000 0.125124 11870.778989 118.949415 4384.211749 191.571034 -801.999865 401864 4929.779444
0.135000 0.135125 10701.373216 104.517321 2828.436064 58.077935 -1544.929614 468084 4929.779444
0.145000 0.145120 10021.007511 85.320937 2649.288385 64.974993 -518.262583 539940 4929.779444
0.155000 0.155118 8653.299076 149.464301 2505.836559 103.979236 449.603331 617324 4929.779444
0.165000 0.165105 7920.281459 75.159252 1951.088941 76.285545 625.177238 697452 4929.779444
0.175000 0.175088 7264.518163 57.515157 1865.706702 77.187169 -68.532881 785846 4929.779444
0.185000 0.185089 6483.473221 107.061600 1483.232442 -7.782855 541.205975 879528 4929.779444
0.195000 0.195093 6060.465558 71.575240 1440.035745 41.640714 264.954857 976596 4929.779444
0.205000 0.205084 5599.407569 66.898507 1007.652703 -4.745703 -95.954330 1077212 4929.779444
0.215000 0.215076 5223.945690 55.894890 1391.086088 72.993123 515.462818 1186908 4929.779444
0.225000 0.225076 4813.073845 65.879880 801.965689 10.971675 82.346626 1299452 4929.779444
0.235000 0.235073 4728.440891 50.380981 680.269036 36.025193 59.386082 1417356 4929.779444
0.245000 0.245067 4352.236562 72.393922 914.050464 -14.658890 509.636782 1539600 4929.779444
0.255000 0.255064 4035.590103 47.314355 436.806747 64.953225 256.358723 1669820 4929.779444
0.265000 0.265061 3793.964346 57.218702 309.356326 -5.491341 42.393163 1801086 4929.779444
0.275000 0.275060 3568.737464 56.336049 73.287556 35.918616 127.101979 1942244 4929.779444
0.285000 0.285062 3375.715485 60.784402 139.759428 -20.236629 138.291531 2084796 4929.779444
0.295000 0.295057 3140.955921 54.918559 82.180633 16.785352 292.574820 2231868 4929.779444
