#Data file /home/DATA/sbrieden/Patchy_dr12_mocks/prerecon/original/Patchy-Mocks-DR12CMASS-S-V6C-Portsmouth-mass_0099.dat
#Random file /home/DATA/sbrieden/Patchy_dr12_mocks/prerecon/original/Random-DR12CMASS-S-V6C-x20.dat
#Number of data elements used: 218282
#Number of random elements used: 4288842
#Effective number of data elements weighted by wcol: 218282.000000
#Effective number of random elements weighted by wcol: 4288842.000000
#Effective number of data elements weighted by wcol*wsys: 218282.000000
#Effective number of random elements weighted by wcol*wsys: 4288842.000000
#Effective redshift value from data 0.597067
#Effective redshift value from randoms 0.597190
#Size of the Box 3700.000000 Mpc/h
#Area of the survey used 2525.000000 deg^2
#Value of alpha: 0.050864
#Normalization using data file
#Normalization using density
#Normalization 4.143159
#Shot noise factor 1.000000
#Shot noise value 4932.032172
#Type of Computation: FFT
#Number of grid cells: 512
#Type of Mass Assigment: TSC
#Type of Yamamoto: GridCenter
#Number of Interlacing steps: 2
#Grid Correction: yes
#Value of Om=0.310000
#Quadrupole as L2
#Octopole as L3
#Hexadecapole as L2L2
#k-centerbin	 k-eff	 Monopole-Pshotnoise	 Dipole	 Quadrupole	 Octopole	 Hexadecapole	 number of modes	 Pshotnoise
0.005000 0.007485 39428.998810 -653.631596 6352.144026 -1246.992245 -11365.617053 846 4932.032172
0.015000 0.016072 50968.197536 156.359146 16541.674066 644.410986 15897.267969 6012 4932.032172
0.025000 0.025646 55320.984212 1002.430951 28496.021179 -539.674005 -12872.839875 16172 4932.032172
0.035000 0.035469 46264.835481 501.485878 22926.791827 3666.634442 10790.833439 31764 4932.032172
0.045000 0.045378 38030.916851 764.656857 16371.157775 1447.144702 1248.279005 52164 4932.032172
0.055000 0.055280 31313.731475 302.965568 12425.712046 719.430772 3887.660450 77396 4932.032172
0.065000 0.065232 27491.197725 452.427743 9035.106129 278.367064 -778.506686 108936 4932.032172
0.075000 0.075229 24159.057565 255.188142 9167.288179 44.530078 1380.094196 144980 4932.032172
0.085000 0.085193 21168.395226 347.793218 6224.406562 444.624915 -330.980293 184854 4932.032172
0.095000 0.095166 16917.876200 266.237084 3103.896277 283.899845 943.314075 232260 4932.032172
0.105000 0.105155 13708.109489 179.191840 4012.921706 -31.590263 342.917045 282884 4932.032172
0.115000 0.115131 12906.659584 163.353811 4042.288257 82.403933 737.454723 339084 4932.032172
0.125000 0.125124 11819.301061 69.262838 4388.204194 225.466843 948.105129 401864 4932.032172
0.135000 0.135125 10557.642622 106.141351 3386.772575 103.345090 713.534958 468084 4932.032172
0.145000 0.145120 9681.580525 139.805937 3601.748001 -12.926949 373.979796 539940 4932.032172
0.155000 0.155118 8619.870158 97.499395 2684.307319 118.030312 135.835940 617324 4932.032172
0.165000 0.165105 7596.080815 81.290780 2609.990315 103.245798 341.589626 697452 4932.032172
0.175000 0.175088 7212.766902 75.192523 2296.453200 7.575732 849.342786 785846 4932.032172
0.185000 0.185089 6741.888462 64.247442 2191.409453 72.664127 227.158734 879528 4932.032172
0.195000 0.195093 6303.369204 71.949320 1445.524331 35.503494 246.764518 976596 4932.032172
0.205000 0.205084 5813.456587 70.161257 1573.688560 38.192337 193.158180 1077212 4932.032172
0.215000 0.215076 5299.554156 74.058833 1166.306868 35.357736 205.698992 1186908 4932.032172
0.225000 0.225076 4890.839941 58.953293 1072.935003 33.285497 24.718433 1299452 4932.032172
0.235000 0.235073 4593.582334 66.275075 672.977183 3.688805 107.968645 1417356 4932.032172
0.245000 0.245067 4410.763545 54.781325 755.764248 6.403208 49.738097 1539600 4932.032172
0.255000 0.255064 4067.907329 61.889441 648.354507 36.753539 258.337172 1669820 4932.032172
0.265000 0.265061 3845.913533 52.542212 426.204315 61.616780 439.130952 1801086 4932.032172
0.275000 0.275060 3592.929972 54.532444 36.704626 -7.089454 128.604299 1942244 4932.032172
0.285000 0.285062 3374.712358 62.226184 83.903986 -7.696133 281.842285 2084796 4932.032172
0.295000 0.295057 3239.298696 57.324896 116.990790 9.346710 257.075835 2231868 4932.032172
