#Data file /home/DATA/sbrieden/Patchy_dr12_mocks/prerecon/original/Patchy-Mocks-DR12LOWZ-S-V5C-Portsmouth-mass_0077.dat
#Random file /home/DATA/sbrieden/Patchy_dr12_mocks/prerecon/original/Random-DR12LOWZ-S-V5C-x20.dat
#Number of data elements used: 100671
#Number of random elements used: 2007904
#Effective number of data elements weighted by wcol: 100671.000000
#Effective number of random elements weighted by wcol: 2007904.000000
#Effective number of data elements weighted by wcol*wsys: 100671.000000
#Effective number of random elements weighted by wcol*wsys: 2007904.000000
#Effective redshift value from data 0.329346
#Effective redshift value from randoms 0.330155
#Size of the Box 2500.000000 Mpc/h
#Area of the survey used 2501.000000 deg^2
#Value of alpha: 0.049998
#Normalization using data file
#Normalization using density
#Normalization 1.862680
#Shot noise factor 1.000000
#Shot noise value 3646.504151
#Type of Computation: FFT
#Number of grid cells: 512
#Type of Mass Assigment: TSC
#Type of Yamamoto: GridCenter
#Number of Interlacing steps: 2
#Grid Correction: yes
#Value of Om=0.310000
#Quadrupole as L2
#Octopole as L3
#Hexadecapole as L2L2
#k-centerbin	 k-eff	 Monopole-Pshotnoise	 Dipole	 Quadrupole	 Octopole	 Hexadecapole	 number of modes	 Pshotnoise
0.005000 0.007385 60099.499235 1469.605387 9403.857401 11307.913549 -15574.030647 250 3646.504151
0.015000 0.016012 68414.849142 -155.781233 10915.961441 -3073.478698 3864.330745 1852 3646.504151
0.025000 0.025646 62873.898859 3837.642257 33361.370291 2915.167033 -8202.275976 5020 3646.504151
0.035000 0.035469 47662.334533 1202.385592 24159.969245 2466.448023 -16652.934751 9756 3646.504151
0.045000 0.045368 39553.703248 675.440327 19637.251441 2813.384765 -4408.740519 16108 3646.504151
0.055000 0.055314 35304.653194 516.380621 15494.417123 1539.086765 -1716.971117 24064 3646.504151
0.065000 0.065258 30283.647777 807.131795 5472.830555 891.702220 -2963.333417 33396 3646.504151
0.075000 0.075209 24984.751739 734.781602 6741.129715 -622.846454 1501.105034 44596 3646.504151
0.085000 0.085175 20594.530311 535.471837 6801.399412 668.214343 212.369907 57124 3646.504151
0.095000 0.095157 17620.402344 256.264780 6197.302163 299.659092 21.449088 71620 3646.504151
0.105000 0.105162 16129.511050 368.265423 6654.959977 322.504766 1413.138848 87552 3646.504151
0.115000 0.115148 14206.862555 180.474717 5740.555659 63.287930 45.541594 104524 3646.504151
0.125000 0.125146 12781.955236 277.481033 4841.882880 167.066760 -848.255737 124228 3646.504151
0.135000 0.135146 11168.807860 131.706662 3058.310576 375.276708 1770.822359 144204 3646.504151
0.145000 0.145132 10215.665020 94.829371 3283.131020 111.223866 65.948829 166492 3646.504151
0.155000 0.155114 9383.725907 127.489389 1645.045433 181.283456 -1295.043777 189964 3646.504151
0.165000 0.165102 8580.220363 153.838771 1761.326876 24.069366 -405.572961 215640 3646.504151
0.175000 0.175105 7456.698971 148.299471 1549.710171 106.838356 831.466362 242836 3646.504151
0.185000 0.185097 7145.173305 116.129643 1787.353809 21.644665 815.771414 270556 3646.504151
0.195000 0.195085 6274.626543 80.634172 1654.317648 56.344984 1035.651097 301084 3646.504151
0.205000 0.205080 5976.828173 36.995232 863.770768 151.461593 -170.446857 332628 3646.504151
0.215000 0.215092 5638.239274 74.933146 594.411732 -90.627297 -60.407365 367216 3646.504151
0.225000 0.225099 5252.422069 73.874050 802.886931 66.823366 -75.934293 400444 3646.504151
0.235000 0.235081 5051.117408 63.786188 710.160919 44.509829 327.983263 436500 3646.504151
0.245000 0.245077 4514.850434 84.329157 914.375407 38.495667 823.222672 475900 3646.504151
0.255000 0.255082 4153.339613 62.224521 599.221754 20.123331 1049.882790 514900 3646.504151
0.265000 0.265074 4080.197556 36.948553 303.874114 96.424227 251.964530 555408 3646.504151
0.275000 0.275066 3745.932832 53.533202 129.984907 -14.374380 246.630689 598684 3646.504151
0.285000 0.285066 3468.191633 60.240351 186.642963 -11.266767 302.288459 643228 3646.504151
0.295000 0.295058 3395.366601 48.304342 -11.767062 2.621483 78.491048 688036 3646.504151
