#Data file /home/DATA/sbrieden/Patchy_dr12_mocks/prerecon/original/Patchy-Mocks-DR12CMASS-N-V6C-Portsmouth-mass_0009.dat
#Random file /home/DATA/sbrieden/Patchy_dr12_mocks/prerecon/original/Random-DR12CMASS-N-V6C-x20.dat
#Number of data elements used: 589881
#Number of random elements used: 11797448
#Effective number of data elements weighted by wcol: 589881.000000
#Effective number of random elements weighted by wcol: 11797448.000000
#Effective number of data elements weighted by wcol*wsys: 589881.000000
#Effective number of random elements weighted by wcol*wsys: 11797448.000000
#Effective redshift value from data 0.598538
#Effective redshift value from randoms 0.597992
#Size of the Box 3700.000000 Mpc/h
#Area of the survey used 6851.000000 deg^2
#Value of alpha: 0.050168
#Normalization using data file
#Normalization using density
#Normalization 11.112458
#Shot noise factor 1.000000
#Shot noise value 4958.670182
#Type of Computation: FFT
#Number of grid cells: 512
#Type of Mass Assigment: TSC
#Type of Yamamoto: GridCenter
#Number of Interlacing steps: 2
#Grid Correction: yes
#Value of Om=0.310000
#Quadrupole as L2
#Octopole as L3
#Hexadecapole as L2L2
#k-centerbin	 k-eff	 Monopole-Pshotnoise	 Dipole	 Quadrupole	 Octopole	 Hexadecapole	 number of modes	 Pshotnoise
0.005000 0.007485 40898.472322 -377.477894 32197.257391 17567.374785 44561.248853 846 4958.670182
0.015000 0.016072 65982.459898 678.683790 39234.554191 677.815904 -5192.586530 6012 4958.670182
0.025000 0.025646 59630.094350 299.279833 31374.013265 7132.019157 4094.767997 16172 4958.670182
0.035000 0.035469 46234.019140 1550.537414 18824.734393 -880.842635 -940.353367 31764 4958.670182
0.045000 0.045378 35722.017375 564.356281 15735.466361 1944.690443 -1926.918781 52164 4958.670182
0.055000 0.055280 31504.903433 218.259905 11517.232237 14.094508 112.233154 77396 4958.670182
0.065000 0.065232 29268.308149 506.224135 11140.138943 508.709632 211.684178 108936 4958.670182
0.075000 0.075229 24244.523121 316.797502 9048.155130 368.532239 2203.652684 144980 4958.670182
0.085000 0.085193 20223.889595 398.971245 6882.393331 220.534936 1016.849033 184854 4958.670182
0.095000 0.095166 16969.672860 120.834649 6827.736991 384.675758 1307.776469 232260 4958.670182
0.105000 0.105155 14645.078614 231.564421 5219.839304 95.940802 284.766979 282884 4958.670182
0.115000 0.115131 13120.449958 120.891415 4288.427075 229.691005 501.010613 339084 4958.670182
0.125000 0.125124 11980.282174 110.824340 3655.876538 72.612658 488.802333 401864 4958.670182
0.135000 0.135125 10785.834776 117.442667 3411.135122 105.496529 1105.841429 468084 4958.670182
0.145000 0.145120 9758.108294 127.877135 2715.636823 150.792282 340.709323 539940 4958.670182
0.155000 0.155118 8487.105575 111.705681 2530.800283 -18.977362 844.532848 617324 4958.670182
0.165000 0.165105 7772.113497 74.497998 2288.969788 97.527852 446.185044 697452 4958.670182
0.175000 0.175088 7224.568958 65.573220 1742.631798 31.387368 359.700921 785846 4958.670182
0.185000 0.185089 6628.704057 72.282805 1507.912199 36.516327 17.645845 879528 4958.670182
0.195000 0.195093 6286.223031 74.819764 1240.887353 16.762836 -18.174665 976596 4958.670182
0.205000 0.205084 5750.102924 71.333214 1327.874795 33.386081 154.864295 1077212 4958.670182
0.215000 0.215076 5351.989302 69.365566 1070.019581 39.379910 105.678538 1186908 4958.670182
0.225000 0.225076 4916.541570 61.335934 842.895469 29.995812 306.013190 1299452 4958.670182
0.235000 0.235073 4517.610459 71.710978 724.357678 -4.880002 16.530628 1417356 4958.670182
0.245000 0.245067 4267.813576 57.162557 699.117175 42.514967 198.682696 1539600 4958.670182
0.255000 0.255064 4033.766647 56.641964 614.734884 -5.279288 207.500109 1669820 4958.670182
0.265000 0.265061 3803.133896 54.242474 512.627654 29.961388 248.542637 1801086 4958.670182
0.275000 0.275060 3544.813998 60.962330 362.562269 18.157211 371.260827 1942244 4958.670182
0.285000 0.285062 3392.600364 54.219912 141.578152 -6.738974 93.179010 2084796 4958.670182
0.295000 0.295057 3142.691883 52.736034 215.974586 34.036370 128.060394 2231868 4958.670182
