#Data file /home/DATA/sbrieden/Patchy_dr12_mocks/prerecon/original/Patchy-Mocks-DR12LOWZ-S-V5C-Portsmouth-mass_0022.dat
#Random file /home/DATA/sbrieden/Patchy_dr12_mocks/prerecon/original/Random-DR12LOWZ-S-V5C-x20.dat
#Number of data elements used: 101593
#Number of random elements used: 2007904
#Effective number of data elements weighted by wcol: 101593.000000
#Effective number of random elements weighted by wcol: 2007904.000000
#Effective number of data elements weighted by wcol*wsys: 101593.000000
#Effective number of random elements weighted by wcol*wsys: 2007904.000000
#Effective redshift value from data 0.330189
#Effective redshift value from randoms 0.330155
#Size of the Box 2500.000000 Mpc/h
#Area of the survey used 2501.000000 deg^2
#Value of alpha: 0.050588
#Normalization using data file
#Normalization using density
#Normalization 1.883526
#Shot noise factor 1.000000
#Shot noise value 3656.643463
#Type of Computation: FFT
#Number of grid cells: 512
#Type of Mass Assigment: TSC
#Type of Yamamoto: GridCenter
#Number of Interlacing steps: 2
#Grid Correction: yes
#Value of Om=0.310000
#Quadrupole as L2
#Octopole as L3
#Hexadecapole as L2L2
#k-centerbin	 k-eff	 Monopole-Pshotnoise	 Dipole	 Quadrupole	 Octopole	 Hexadecapole	 number of modes	 Pshotnoise
0.005000 0.007385 43754.651503 -7954.135117 8503.841637 -16438.534616 -48752.852495 250 3656.643463
0.015000 0.016012 63417.524549 -525.691083 18589.166109 -2737.134833 -41138.756916 1852 3656.643463
0.025000 0.025646 67023.006310 237.293247 962.786292 -2895.514766 3985.214555 5020 3656.643463
0.035000 0.035469 54778.452479 2317.711678 20980.694735 4700.034592 6996.414658 9756 3656.643463
0.045000 0.045368 44906.827441 1628.748338 8459.751761 -1967.430530 -9925.274191 16108 3656.643463
0.055000 0.055314 35673.473821 1211.401756 12966.633365 846.317877 2177.941590 24064 3656.643463
0.065000 0.065258 27525.289650 520.966353 13663.211793 1428.127103 717.303670 33396 3656.643463
0.075000 0.075209 25800.270801 327.198028 10682.670782 575.388298 -826.695998 44596 3656.643463
0.085000 0.085175 22370.939256 545.760996 6451.495580 442.995650 -3210.685477 57124 3656.643463
0.095000 0.095157 17759.985276 548.987186 5835.227784 539.971619 637.946363 71620 3656.643463
0.105000 0.105162 15440.485402 120.698870 4117.920089 353.739647 -609.007051 87552 3656.643463
0.115000 0.115148 14653.978863 172.009992 4286.621396 -84.943052 310.510358 104524 3656.643463
0.125000 0.125146 12990.290164 376.878711 3561.731688 314.486240 1051.684507 124228 3656.643463
0.135000 0.135146 11508.365504 98.829145 3837.331716 70.120591 770.028127 144204 3656.643463
0.145000 0.145132 10487.048647 200.061386 4430.007629 240.191529 1106.890906 166492 3656.643463
0.155000 0.155114 9125.092042 112.108308 3024.595537 82.425511 555.716919 189964 3656.643463
0.165000 0.165102 8553.085003 77.048927 2109.726400 -35.557503 -776.053628 215640 3656.643463
0.175000 0.175105 7982.935111 161.265227 2709.727873 226.988208 1425.709686 242836 3656.643463
0.185000 0.185097 7126.721172 105.771327 1950.036457 156.900139 545.713670 270556 3656.643463
0.195000 0.195085 6673.879398 58.852970 2169.535711 47.729950 1180.320680 301084 3656.643463
0.205000 0.205080 6069.424640 103.042527 1454.914058 149.546217 1144.251517 332628 3656.643463
0.215000 0.215092 5928.004313 35.063720 947.562564 76.653483 835.886094 367216 3656.643463
0.225000 0.225099 5377.030703 94.125879 949.106498 -8.324645 735.763137 400444 3656.643463
0.235000 0.235081 5005.712132 100.128168 1145.846908 -45.261478 347.938124 436500 3656.643463
0.245000 0.245077 4701.501731 40.715028 978.946777 34.597160 111.225649 475900 3656.643463
0.255000 0.255082 4368.651431 47.585151 653.050780 126.808717 308.281207 514900 3656.643463
0.265000 0.265074 4160.450138 88.691556 564.282711 -54.640381 186.330058 555408 3656.643463
0.275000 0.275066 3760.089820 31.639208 417.749503 60.026900 187.429177 598684 3656.643463
0.285000 0.285066 3648.780262 68.156799 383.255822 17.193072 140.759432 643228 3656.643463
0.295000 0.295058 3393.328931 48.130806 394.538919 27.353628 377.073842 688036 3656.643463
