#Data file /home/DATA/sbrieden/Patchy_dr12_mocks/prerecon/original/Patchy-Mocks-DR12LOWZ-N-V5C-Portsmouth-mass_0089.dat
#Random file /home/DATA/sbrieden/Patchy_dr12_mocks/prerecon/original/Random-DR12LOWZ-N-V5C-x20.dat
#Number of data elements used: 235784
#Number of random elements used: 4685323
#Effective number of data elements weighted by wcol: 235784.000000
#Effective number of random elements weighted by wcol: 4685323.000000
#Effective number of data elements weighted by wcol*wsys: 235784.000000
#Effective number of random elements weighted by wcol*wsys: 4685323.000000
#Effective redshift value from data 0.329901
#Effective redshift value from randoms 0.330058
#Size of the Box 2500.000000 Mpc/h
#Area of the survey used 5826.000000 deg^2
#Value of alpha: 0.050305
#Normalization using data file
#Normalization using density
#Normalization 4.370211
#Shot noise factor 1.000000
#Shot noise value 3655.740864
#Type of Computation: FFT
#Number of grid cells: 512
#Type of Mass Assigment: TSC
#Type of Yamamoto: GridCenter
#Number of Interlacing steps: 2
#Grid Correction: yes
#Value of Om=0.310000
#Quadrupole as L2
#Octopole as L3
#Hexadecapole as L2L2
#k-centerbin	 k-eff	 Monopole-Pshotnoise	 Dipole	 Quadrupole	 Octopole	 Hexadecapole	 number of modes	 Pshotnoise
0.005000 0.007385 41584.753732 -1260.037691 29973.470140 19340.766910 466.113458 250 3655.740864
0.015000 0.016012 73020.911470 -2585.937700 63778.600348 6734.140376 -11406.789991 1852 3655.740864
0.025000 0.025646 66993.082816 3884.058752 33497.771195 6584.238538 -9352.741698 5020 3655.740864
0.035000 0.035469 51715.171936 1916.632205 24472.259965 2289.715702 5738.219661 9756 3655.740864
0.045000 0.045368 41990.859955 1398.064691 16925.819400 1503.655872 5087.532991 16108 3655.740864
0.055000 0.055314 35088.441783 639.004366 17447.760673 1939.350747 185.767294 24064 3655.740864
0.065000 0.065258 30055.233774 341.872128 12943.461140 1964.926964 6210.447006 33396 3655.740864
0.075000 0.075209 25095.792200 735.194197 10169.515899 -468.459914 -2358.928794 44596 3655.740864
0.085000 0.085175 22011.147687 682.485650 8059.598469 525.189796 -1322.995672 57124 3655.740864
0.095000 0.095157 18350.625984 310.677192 6588.996600 581.099966 -625.592968 71620 3655.740864
0.105000 0.105162 16214.941020 328.938470 5126.165603 97.023368 -1275.633619 87552 3655.740864
0.115000 0.115148 14164.230821 135.394766 4313.898840 643.023289 -123.165661 104524 3655.740864
0.125000 0.125146 12737.010453 153.051544 3799.915725 99.189936 548.764743 124228 3655.740864
0.135000 0.135146 11634.835616 214.784845 3045.029403 51.813429 78.200462 144204 3655.740864
0.145000 0.145132 10327.353514 189.283347 2989.301732 112.194309 364.322023 166492 3655.740864
0.155000 0.155114 9169.722892 200.743723 3020.400747 110.880326 550.230148 189964 3655.740864
0.165000 0.165102 8314.159264 82.587864 2122.766475 146.363024 -252.497496 215640 3655.740864
0.175000 0.175105 7800.398618 89.704339 1995.495604 116.343899 349.001295 242836 3655.740864
0.185000 0.185097 7244.843968 65.041648 1693.259920 38.007335 195.655607 270556 3655.740864
0.195000 0.195085 6762.556962 147.079339 1526.644890 31.689983 -50.550946 301084 3655.740864
0.205000 0.205080 6062.127009 71.248854 1039.559309 103.439740 230.865545 332628 3655.740864
0.215000 0.215092 5601.496685 96.463396 1160.274367 -33.618042 440.391583 367216 3655.740864
0.225000 0.225099 5268.451943 21.412226 1073.026187 127.220799 208.470732 400444 3655.740864
0.235000 0.235081 4935.809342 89.962197 794.466621 -12.212108 197.647405 436500 3655.740864
0.245000 0.245077 4503.646062 67.747254 768.714212 45.732526 263.646547 475900 3655.740864
0.255000 0.255082 4329.442200 70.573496 494.568331 -3.661899 353.045723 514900 3655.740864
0.265000 0.265074 4029.945612 44.965085 474.950995 53.619484 77.518696 555408 3655.740864
0.275000 0.275066 3736.867677 48.883899 276.004022 71.697745 306.107254 598684 3655.740864
0.285000 0.285066 3501.433160 51.740522 190.611659 -15.972845 331.111930 643228 3655.740864
0.295000 0.295058 3346.456346 53.286769 18.656470 36.770418 368.900336 688036 3655.740864
