#Data file /home/DATA/sbrieden/Patchy_dr12_mocks/prerecon/original/Patchy-Mocks-DR12CMASS-S-V6C-Portsmouth-mass_0056.dat
#Random file /home/DATA/sbrieden/Patchy_dr12_mocks/prerecon/original/Random-DR12CMASS-S-V6C-x20.dat
#Number of data elements used: 213759
#Number of random elements used: 4288842
#Effective number of data elements weighted by wcol: 213759.000000
#Effective number of random elements weighted by wcol: 4288842.000000
#Effective number of data elements weighted by wcol*wsys: 213759.000000
#Effective number of random elements weighted by wcol*wsys: 4288842.000000
#Effective redshift value from data 0.598204
#Effective redshift value from randoms 0.597190
#Size of the Box 3700.000000 Mpc/h
#Area of the survey used 2525.000000 deg^2
#Value of alpha: 0.050041
#Normalization using data file
#Normalization using density
#Normalization 4.068276
#Shot noise factor 1.000000
#Shot noise value 4957.034438
#Type of Computation: FFT
#Number of grid cells: 512
#Type of Mass Assigment: TSC
#Type of Yamamoto: GridCenter
#Number of Interlacing steps: 2
#Grid Correction: yes
#Value of Om=0.310000
#Quadrupole as L2
#Octopole as L3
#Hexadecapole as L2L2
#k-centerbin	 k-eff	 Monopole-Pshotnoise	 Dipole	 Quadrupole	 Octopole	 Hexadecapole	 number of modes	 Pshotnoise
0.005000 0.007485 59259.552620 1299.158583 35487.806060 4142.205674 -4889.183836 846 4957.034438
0.015000 0.016072 66849.242321 -196.698904 -1065.218958 36.137155 -3756.995042 6012 4957.034438
0.025000 0.025646 61333.649489 856.372216 11319.299030 1462.245631 3848.704136 16172 4957.034438
0.035000 0.035469 43547.036394 919.723963 23352.729827 991.041812 -1299.530100 31764 4957.034438
0.045000 0.045378 39043.003600 1027.014925 15284.198811 189.850776 -3763.750565 52164 4957.034438
0.055000 0.055280 30242.200460 249.127471 11921.179845 1326.024980 1501.281693 77396 4957.034438
0.065000 0.065232 27897.071567 309.228072 12594.850078 188.974933 2982.046283 108936 4957.034438
0.075000 0.075229 24125.728406 345.360222 9394.475221 727.810755 115.587119 144980 4957.034438
0.085000 0.085193 20123.877182 216.232299 4873.402096 287.544866 2822.628101 184854 4957.034438
0.095000 0.095166 16908.771850 354.251155 5401.963508 155.475046 835.206243 232260 4957.034438
0.105000 0.105155 14037.594916 141.453252 5040.415227 94.031909 1222.465676 282884 4957.034438
0.115000 0.115131 13093.862915 125.087441 4746.242442 5.260905 -296.367996 339084 4957.034438
0.125000 0.125124 11754.925445 136.382808 4321.264288 242.031424 665.849936 401864 4957.034438
0.135000 0.135125 10550.350544 117.657363 3217.023826 45.145660 155.374438 468084 4957.034438
0.145000 0.145120 9575.900719 103.945250 2961.888967 84.631800 514.390222 539940 4957.034438
0.155000 0.155118 8623.663200 91.239786 2318.925844 124.212595 139.500879 617324 4957.034438
0.165000 0.165105 7835.111385 83.281289 2376.543465 38.278199 1107.340337 697452 4957.034438
0.175000 0.175088 7141.590645 77.604029 1758.081140 45.327335 563.952185 785846 4957.034438
0.185000 0.185089 6749.109635 74.636025 1670.947824 76.658609 706.993085 879528 4957.034438
0.195000 0.195093 6129.145003 76.484929 1388.637850 -25.879018 216.176807 976596 4957.034438
0.205000 0.205084 5777.561303 69.912181 1254.010181 62.656040 120.284845 1077212 4957.034438
0.215000 0.215076 5213.696810 74.056859 1289.344166 -2.164380 247.508243 1186908 4957.034438
0.225000 0.225076 4883.791906 62.914731 1283.051442 57.547811 384.189293 1299452 4957.034438
0.235000 0.235073 4367.221572 62.992690 1108.601335 22.529356 306.600396 1417356 4957.034438
0.245000 0.245067 4215.674197 57.542299 557.451431 20.547942 23.184619 1539600 4957.034438
0.255000 0.255064 4046.915668 50.225427 558.942322 16.833171 291.831987 1669820 4957.034438
0.265000 0.265061 3906.575966 49.691743 312.429689 23.890571 397.550623 1801086 4957.034438
0.275000 0.275060 3601.292289 67.508838 308.644402 11.261064 279.551258 1942244 4957.034438
0.285000 0.285062 3295.801037 56.979920 237.444497 8.914576 147.645054 2084796 4957.034438
0.295000 0.295057 3158.385817 56.701302 221.804768 -13.310772 327.210597 2231868 4957.034438
