#Data file /home/DATA/sbrieden/Patchy_dr12_mocks/prerecon/original/Patchy-Mocks-DR12LOWZ-S-V5C-Portsmouth-mass_0047.dat
#Random file /home/DATA/sbrieden/Patchy_dr12_mocks/prerecon/original/Random-DR12LOWZ-S-V5C-x20.dat
#Number of data elements used: 99300
#Number of random elements used: 2007904
#Effective number of data elements weighted by wcol: 99300.000000
#Effective number of random elements weighted by wcol: 2007904.000000
#Effective number of data elements weighted by wcol*wsys: 99300.000000
#Effective number of random elements weighted by wcol*wsys: 2007904.000000
#Effective redshift value from data 0.329644
#Effective redshift value from randoms 0.330155
#Size of the Box 2500.000000 Mpc/h
#Area of the survey used 2501.000000 deg^2
#Value of alpha: 0.049474
#Normalization using data file
#Normalization using density
#Normalization 1.842160
#Shot noise factor 1.000000
#Shot noise value 3651.867096
#Type of Computation: FFT
#Number of grid cells: 512
#Type of Mass Assigment: TSC
#Type of Yamamoto: GridCenter
#Number of Interlacing steps: 2
#Grid Correction: yes
#Value of Om=0.310000
#Quadrupole as L2
#Octopole as L3
#Hexadecapole as L2L2
#k-centerbin	 k-eff	 Monopole-Pshotnoise	 Dipole	 Quadrupole	 Octopole	 Hexadecapole	 number of modes	 Pshotnoise
0.005000 0.007385 73699.318763 -4828.067076 -51029.935782 -25660.417735 -22786.575410 250 3651.867096
0.015000 0.016012 43054.414438 2312.945591 -108.374817 1478.877313 16409.425034 1852 3651.867096
0.025000 0.025646 46966.284632 -1515.678300 5803.922984 -1619.228291 6481.717414 5020 3651.867096
0.035000 0.035469 49828.919867 1002.686066 9460.613794 1220.193861 325.024376 9756 3651.867096
0.045000 0.045368 44278.444011 1551.784292 9637.183436 115.575700 -910.571379 16108 3651.867096
0.055000 0.055314 35247.805946 697.422049 10952.541341 1235.611041 -1069.470468 24064 3651.867096
0.065000 0.065258 29919.370993 805.189040 9465.487569 650.632500 2457.231332 33396 3651.867096
0.075000 0.075209 25260.939070 362.963243 6058.497552 618.947326 2012.141439 44596 3651.867096
0.085000 0.085175 21573.036008 645.302043 3985.042023 282.337187 672.064634 57124 3651.867096
0.095000 0.095157 17999.503608 345.830730 4970.517233 48.777337 1437.930760 71620 3651.867096
0.105000 0.105162 16540.498645 227.659668 6612.616716 204.140354 1543.140985 87552 3651.867096
0.115000 0.115148 14125.461248 326.593691 4737.647017 460.439235 1330.764145 104524 3651.867096
0.125000 0.125146 12434.337421 137.385682 3384.486587 118.924859 686.365103 124228 3651.867096
0.135000 0.135146 11352.451465 260.871307 3173.391582 227.404649 1009.817957 144204 3651.867096
0.145000 0.145132 10703.416533 92.569041 2800.575060 113.320838 1685.071890 166492 3651.867096
0.155000 0.155114 9014.089978 212.831565 3043.305236 -34.861901 1618.299067 189964 3651.867096
0.165000 0.165102 8478.837201 31.602341 2243.997303 234.188369 -20.823428 215640 3651.867096
0.175000 0.175105 8123.017049 106.868445 2559.115249 72.534956 354.187928 242836 3651.867096
0.185000 0.185097 7156.377086 138.392772 1675.729537 20.827267 18.985244 270556 3651.867096
0.195000 0.195085 6586.413135 74.277527 2037.403653 145.065758 408.606623 301084 3651.867096
0.205000 0.205080 5859.489130 90.082179 1148.568062 186.208794 842.252308 332628 3651.867096
0.215000 0.215092 5817.426741 41.494063 850.708893 -93.687666 307.048353 367216 3651.867096
0.225000 0.225099 5427.713914 88.820848 938.616767 23.746918 40.615877 400444 3651.867096
0.235000 0.235081 4888.437542 75.485154 803.016755 45.789345 235.388318 436500 3651.867096
0.245000 0.245077 4561.575859 58.211805 121.385480 73.759551 111.016082 475900 3651.867096
0.255000 0.255082 4337.188492 60.018049 320.493568 2.935945 57.533714 514900 3651.867096
0.265000 0.265074 4136.074090 46.074996 112.751021 -2.346748 28.203113 555408 3651.867096
0.275000 0.275066 3868.157586 64.218276 228.650507 24.332669 327.125662 598684 3651.867096
0.285000 0.285066 3589.282117 60.513462 76.415928 16.091941 95.579696 643228 3651.867096
0.295000 0.295058 3320.124622 59.192525 221.614267 14.085453 540.729737 688036 3651.867096
