#Data file /home/DATA/sbrieden/Patchy_dr12_mocks/prerecon/original/Patchy-Mocks-DR12LOWZ-N-V5C-Portsmouth-mass_0083.dat
#Random file /home/DATA/sbrieden/Patchy_dr12_mocks/prerecon/original/Random-DR12LOWZ-N-V5C-x20.dat
#Number of data elements used: 234422
#Number of random elements used: 4685323
#Effective number of data elements weighted by wcol: 234422.000000
#Effective number of random elements weighted by wcol: 4685323.000000
#Effective number of data elements weighted by wcol*wsys: 234422.000000
#Effective number of random elements weighted by wcol*wsys: 4685323.000000
#Effective redshift value from data 0.329684
#Effective redshift value from randoms 0.330058
#Size of the Box 2500.000000 Mpc/h
#Area of the survey used 5826.000000 deg^2
#Value of alpha: 0.049976
#Normalization using data file
#Normalization using density
#Normalization 4.343417
#Shot noise factor 1.000000
#Shot noise value 3648.887342
#Type of Computation: FFT
#Number of grid cells: 512
#Type of Mass Assigment: TSC
#Type of Yamamoto: GridCenter
#Number of Interlacing steps: 2
#Grid Correction: yes
#Value of Om=0.310000
#Quadrupole as L2
#Octopole as L3
#Hexadecapole as L2L2
#k-centerbin	 k-eff	 Monopole-Pshotnoise	 Dipole	 Quadrupole	 Octopole	 Hexadecapole	 number of modes	 Pshotnoise
0.005000 0.007385 55045.633325 -1771.951852 14784.739934 16767.282127 5318.051487 250 3648.887342
0.015000 0.016012 59570.814077 -171.315732 -18132.099149 -3063.145981 -315.115288 1852 3648.887342
0.025000 0.025646 63473.602918 814.736069 1778.114693 -5848.287836 -9392.578998 5020 3648.887342
0.035000 0.035469 49564.950027 2747.867418 26424.153272 1393.763238 4075.540958 9756 3648.887342
0.045000 0.045368 39949.781994 365.969874 21402.699530 4635.560527 3013.878943 16108 3648.887342
0.055000 0.055314 33878.689121 1161.303270 13819.821692 -1.891664 -131.168283 24064 3648.887342
0.065000 0.065258 29966.757525 222.648444 13194.162293 1135.079416 6077.252361 33396 3648.887342
0.075000 0.075209 27120.209928 663.949387 10464.757358 863.630709 -968.261072 44596 3648.887342
0.085000 0.085175 22366.209671 585.978171 7424.479049 322.701292 -191.958868 57124 3648.887342
0.095000 0.095157 18652.102492 436.210811 4727.919888 518.226780 264.672038 71620 3648.887342
0.105000 0.105162 16097.725730 305.460154 5851.830941 57.504105 743.735137 87552 3648.887342
0.115000 0.115148 14276.386288 42.123839 5119.866472 627.990365 899.668056 104524 3648.887342
0.125000 0.125146 13372.293343 324.898113 3013.036122 -144.104377 -263.939339 124228 3648.887342
0.135000 0.135146 11395.647624 171.163274 3253.160323 236.297749 -386.216038 144204 3648.887342
0.145000 0.145132 10533.722464 158.469398 2431.417502 154.822864 1098.730483 166492 3648.887342
0.155000 0.155114 9451.330573 179.504347 2671.166570 63.463164 762.360116 189964 3648.887342
0.165000 0.165102 8281.981521 140.577786 1589.381224 59.807497 472.577873 215640 3648.887342
0.175000 0.175105 7551.977186 113.092753 2085.563338 -26.063279 280.378864 242836 3648.887342
0.185000 0.185097 7172.825835 40.692132 1979.704832 288.723149 303.842310 270556 3648.887342
0.195000 0.195085 6637.578184 107.115162 1220.824953 -13.686806 129.702228 301084 3648.887342
0.205000 0.205080 6007.121291 80.678474 986.052202 90.664581 424.311622 332628 3648.887342
0.215000 0.215092 5547.586112 76.133280 901.396585 5.990007 160.714239 367216 3648.887342
0.225000 0.225099 5251.217825 53.999056 793.640090 20.505960 88.829261 400444 3648.887342
0.235000 0.235081 4922.303528 78.282429 323.561415 61.045023 -154.037311 436500 3648.887342
0.245000 0.245077 4494.005342 84.558923 372.705933 -35.399559 118.168868 475900 3648.887342
0.255000 0.255082 4254.129353 59.849265 441.413868 52.039796 273.342048 514900 3648.887342
0.265000 0.265074 3901.483504 44.320764 382.420646 -0.728987 196.451272 555408 3648.887342
0.275000 0.275066 3713.988047 62.599926 373.537753 27.859438 28.764205 598684 3648.887342
0.285000 0.285066 3513.083196 48.067816 261.215192 17.271238 350.689733 643228 3648.887342
0.295000 0.295058 3282.749363 44.419089 122.208439 -19.659733 249.112409 688036 3648.887342
