#Data file /home/DATA/sbrieden/Patchy_dr12_mocks/prerecon/original/Patchy-Mocks-DR12LOWZ-N-V5C-Portsmouth-mass_0034.dat
#Random file /home/DATA/sbrieden/Patchy_dr12_mocks/prerecon/original/Random-DR12LOWZ-N-V5C-x20.dat
#Number of data elements used: 234610
#Number of random elements used: 4685323
#Effective number of data elements weighted by wcol: 234610.000000
#Effective number of random elements weighted by wcol: 4685323.000000
#Effective number of data elements weighted by wcol*wsys: 234610.000000
#Effective number of random elements weighted by wcol*wsys: 4685323.000000
#Effective redshift value from data 0.329936
#Effective redshift value from randoms 0.330058
#Size of the Box 2500.000000 Mpc/h
#Area of the survey used 5826.000000 deg^2
#Value of alpha: 0.050070
#Normalization using data file
#Normalization using density
#Normalization 4.349222
#Shot noise factor 1.000000
#Shot noise value 3656.645097
#Type of Computation: FFT
#Number of grid cells: 512
#Type of Mass Assigment: TSC
#Type of Yamamoto: GridCenter
#Number of Interlacing steps: 2
#Grid Correction: yes
#Value of Om=0.310000
#Quadrupole as L2
#Octopole as L3
#Hexadecapole as L2L2
#k-centerbin	 k-eff	 Monopole-Pshotnoise	 Dipole	 Quadrupole	 Octopole	 Hexadecapole	 number of modes	 Pshotnoise
0.005000 0.007385 39764.633660 -6981.013694 -11768.442122 -24286.223268 -2117.357763 250 3656.645097
0.015000 0.016012 74248.532713 1981.363760 9653.803029 -13232.789656 -60466.967502 1852 3656.645097
0.025000 0.025646 59446.600522 2186.666757 30042.960059 5134.341800 -7535.658171 5020 3656.645097
0.035000 0.035469 49398.838746 291.859936 17740.360472 725.928151 -2800.854156 9756 3656.645097
0.045000 0.045368 44737.221917 2551.156204 18641.251911 1092.464612 -5567.688450 16108 3656.645097
0.055000 0.055314 34045.313682 593.938367 14551.123687 1597.203122 323.006985 24064 3656.645097
0.065000 0.065258 28382.097621 762.262683 10354.494251 839.294582 -17.846644 33396 3656.645097
0.075000 0.075209 25267.442648 216.023939 9888.436948 554.756811 -368.400940 44596 3656.645097
0.085000 0.085175 21853.811391 539.025816 7957.687620 341.764270 -224.400545 57124 3656.645097
0.095000 0.095157 18015.206896 573.384544 6765.698380 717.659068 2670.311724 71620 3656.645097
0.105000 0.105162 15406.939633 255.993709 5443.151006 96.127277 607.737182 87552 3656.645097
0.115000 0.115148 13744.307202 173.930962 5012.483325 389.485119 722.803012 104524 3656.645097
0.125000 0.125146 12632.153362 178.755319 4168.159749 128.945845 962.609768 124228 3656.645097
0.135000 0.135146 11431.036452 157.796044 3359.112301 259.990109 -182.949942 144204 3656.645097
0.145000 0.145132 10149.270534 130.499484 2368.383322 90.431574 -326.194192 166492 3656.645097
0.155000 0.155114 9127.309754 232.913161 2690.788591 -45.982047 -334.930609 189964 3656.645097
0.165000 0.165102 8279.811039 73.919031 2542.439697 71.625781 128.241829 215640 3656.645097
0.175000 0.175105 7603.340144 98.657941 2175.385661 154.183194 -124.909495 242836 3656.645097
0.185000 0.185097 7180.697200 89.599478 1999.320816 -47.467416 -141.287155 270556 3656.645097
0.195000 0.195085 6686.157092 70.461959 1525.813948 209.533249 -53.274099 301084 3656.645097
0.205000 0.205080 6117.883915 94.467309 1221.951781 3.286986 121.188273 332628 3656.645097
0.215000 0.215092 5641.981251 96.557433 1045.382811 64.853144 278.728958 367216 3656.645097
0.225000 0.225099 5089.948707 94.464973 1040.406212 20.605645 134.042214 400444 3656.645097
0.235000 0.235081 4734.625485 53.777967 797.227060 29.833500 248.630869 436500 3656.645097
0.245000 0.245077 4479.034387 48.828232 790.840473 54.241035 340.576194 475900 3656.645097
0.255000 0.255082 4299.036113 58.269946 511.120302 15.820424 151.387546 514900 3656.645097
0.265000 0.265074 3979.878189 41.793512 429.185171 81.773550 443.337287 555408 3656.645097
0.275000 0.275066 3865.640745 60.929505 276.619459 -0.957286 210.860355 598684 3656.645097
0.285000 0.285066 3515.757673 66.422655 159.661213 10.326001 364.640264 643228 3656.645097
0.295000 0.295058 3323.987164 40.335753 160.611123 27.462765 254.390656 688036 3656.645097
