#Data file /home/DATA/sbrieden/Patchy_dr12_mocks/prerecon/original/Patchy-Mocks-DR12LOWZ-S-V5C-Portsmouth-mass_0051.dat
#Random file /home/DATA/sbrieden/Patchy_dr12_mocks/prerecon/original/Random-DR12LOWZ-S-V5C-x20.dat
#Number of data elements used: 99771
#Number of random elements used: 2007904
#Effective number of data elements weighted by wcol: 99771.000000
#Effective number of random elements weighted by wcol: 2007904.000000
#Effective number of data elements weighted by wcol*wsys: 99771.000000
#Effective number of random elements weighted by wcol*wsys: 2007904.000000
#Effective redshift value from data 0.330876
#Effective redshift value from randoms 0.330155
#Size of the Box 2500.000000 Mpc/h
#Area of the survey used 2501.000000 deg^2
#Value of alpha: 0.049804
#Normalization using data file
#Normalization using density
#Normalization 1.852831
#Shot noise factor 1.000000
#Shot noise value 3665.185476
#Type of Computation: FFT
#Number of grid cells: 512
#Type of Mass Assigment: TSC
#Type of Yamamoto: GridCenter
#Number of Interlacing steps: 2
#Grid Correction: yes
#Value of Om=0.310000
#Quadrupole as L2
#Octopole as L3
#Hexadecapole as L2L2
#k-centerbin	 k-eff	 Monopole-Pshotnoise	 Dipole	 Quadrupole	 Octopole	 Hexadecapole	 number of modes	 Pshotnoise
0.005000 0.007385 85316.933128 2000.841690 -72018.936372 -21661.798178 7079.859249 250 3665.185476
0.015000 0.016012 91414.173781 -378.259097 7308.775890 18409.474584 119499.306139 1852 3665.185476
0.025000 0.025646 60272.802184 6150.050503 21049.565868 1501.830637 16793.103630 5020 3665.185476
0.035000 0.035469 50333.656190 243.217312 12850.438365 2219.630957 7384.601518 9756 3665.185476
0.045000 0.045368 40636.242879 1265.050925 15178.326133 3280.195256 4637.043542 16108 3665.185476
0.055000 0.055314 33083.768035 742.763226 10756.386773 -596.101883 499.113376 24064 3665.185476
0.065000 0.065258 32320.784811 414.924915 8536.373094 1423.735360 1125.069639 33396 3665.185476
0.075000 0.075209 26680.888821 563.727863 6252.472930 -341.308840 -2147.482932 44596 3665.185476
0.085000 0.085175 21368.635619 805.678819 8666.441971 1007.756765 1346.869428 57124 3665.185476
0.095000 0.095157 17364.920296 374.126415 4808.451323 255.333761 2055.823179 71620 3665.185476
0.105000 0.105162 15706.913857 147.952499 4235.037688 508.152404 2824.406465 87552 3665.185476
0.115000 0.115148 13395.557243 249.180752 2276.054693 12.859204 715.052057 104524 3665.185476
0.125000 0.125146 12920.799765 191.010936 3941.428622 -132.322209 -314.894009 124228 3665.185476
0.135000 0.135146 11371.741120 210.847213 4386.903268 187.345707 261.059374 144204 3665.185476
0.145000 0.145132 10886.907729 127.118289 3983.402466 273.866085 2139.354077 166492 3665.185476
0.155000 0.155114 9355.181566 161.327854 2188.568502 16.920045 -412.232411 189964 3665.185476
0.165000 0.165102 8412.660527 120.814394 2630.216107 29.627589 -416.187750 215640 3665.185476
0.175000 0.175105 7709.721628 128.451930 2453.045791 178.274592 308.645089 242836 3665.185476
0.185000 0.185097 7324.737523 54.790819 2394.574227 109.336612 1174.005156 270556 3665.185476
0.195000 0.195085 6878.379563 117.498341 1926.312405 16.997807 73.138859 301084 3665.185476
0.205000 0.205080 6029.891707 90.123869 1234.499933 86.232141 246.440039 332628 3665.185476
0.215000 0.215092 5589.169195 79.838843 1228.795092 77.829515 132.700349 367216 3665.185476
0.225000 0.225099 5142.593593 79.879629 605.400018 67.777160 804.155028 400444 3665.185476
0.235000 0.235081 4947.093595 40.607172 424.694550 2.227412 11.567160 436500 3665.185476
0.245000 0.245077 4497.330474 86.009418 595.098059 25.143726 411.967216 475900 3665.185476
0.255000 0.255082 4165.083887 70.666694 566.899081 26.105371 84.133222 514900 3665.185476
0.265000 0.265074 3904.119856 29.800171 213.330067 2.380399 122.430597 555408 3665.185476
0.275000 0.275066 3799.046968 55.354328 511.086003 -39.533158 -52.505505 598684 3665.185476
0.285000 0.285066 3540.514301 59.141294 490.371334 63.807167 -78.165639 643228 3665.185476
0.295000 0.295058 3265.449910 62.062117 246.480073 -7.805617 -26.660264 688036 3665.185476
