#Data file /home/DATA/sbrieden/Patchy_dr12_mocks/prerecon/original/Patchy-Mocks-DR12LOWZ-S-V5C-Portsmouth-mass_0097.dat
#Random file /home/DATA/sbrieden/Patchy_dr12_mocks/prerecon/original/Random-DR12LOWZ-S-V5C-x20.dat
#Number of data elements used: 100065
#Number of random elements used: 2007904
#Effective number of data elements weighted by wcol: 100065.000000
#Effective number of random elements weighted by wcol: 2007904.000000
#Effective number of data elements weighted by wcol*wsys: 100065.000000
#Effective number of random elements weighted by wcol*wsys: 2007904.000000
#Effective redshift value from data 0.329665
#Effective redshift value from randoms 0.330155
#Size of the Box 2500.000000 Mpc/h
#Area of the survey used 2501.000000 deg^2
#Value of alpha: 0.049763
#Normalization using data file
#Normalization using density
#Normalization 1.853487
#Shot noise factor 1.000000
#Shot noise value 3648.916414
#Type of Computation: FFT
#Number of grid cells: 512
#Type of Mass Assigment: TSC
#Type of Yamamoto: GridCenter
#Number of Interlacing steps: 2
#Grid Correction: yes
#Value of Om=0.310000
#Quadrupole as L2
#Octopole as L3
#Hexadecapole as L2L2
#k-centerbin	 k-eff	 Monopole-Pshotnoise	 Dipole	 Quadrupole	 Octopole	 Hexadecapole	 number of modes	 Pshotnoise
0.005000 0.007385 63763.522384 7002.697078 71999.316696 4661.811887 -48282.206622 250 3648.916414
0.015000 0.016012 65680.644229 1797.346807 59907.832090 16371.487766 2506.835847 1852 3648.916414
0.025000 0.025646 59363.525508 1237.740001 44968.811505 -841.667014 -41015.612487 5020 3648.916414
0.035000 0.035469 47379.286935 2207.732052 24349.630814 6212.673776 -9352.353973 9756 3648.916414
0.045000 0.045368 39301.687428 515.275396 16037.962306 -657.846642 -8365.062222 16108 3648.916414
0.055000 0.055314 35918.037588 1031.099883 14415.819010 2703.805487 661.295044 24064 3648.916414
0.065000 0.065258 30019.083738 273.605585 9027.363896 1368.310434 -983.942194 33396 3648.916414
0.075000 0.075209 23937.697433 970.965983 6920.788272 -923.445814 -2395.011831 44596 3648.916414
0.085000 0.085175 20883.607843 310.141041 7972.063996 931.648388 -1388.943467 57124 3648.916414
0.095000 0.095157 17861.951276 433.318686 4820.866170 369.139223 -1558.516852 71620 3648.916414
0.105000 0.105162 15510.442545 189.537878 4852.637344 180.528642 488.850355 87552 3648.916414
0.115000 0.115148 13742.551332 396.312105 4091.248854 43.711950 997.648027 104524 3648.916414
0.125000 0.125146 12052.746461 125.618907 4525.718894 110.186269 -1273.191134 124228 3648.916414
0.135000 0.135146 11192.913482 163.155620 3546.607780 196.595457 -760.318642 144204 3648.916414
0.145000 0.145132 10480.574380 85.219111 3690.858483 373.675364 631.662676 166492 3648.916414
0.155000 0.155114 9179.532954 197.392370 1992.594252 -54.262875 -428.023083 189964 3648.916414
0.165000 0.165102 8020.732698 139.368449 1769.512352 99.977848 -165.126542 215640 3648.916414
0.175000 0.175105 7380.630448 124.139312 2338.981216 38.251667 107.749905 242836 3648.916414
0.185000 0.185097 6816.462148 54.494681 1718.744542 192.728684 -266.738880 270556 3648.916414
0.195000 0.195085 6457.730197 85.519422 1283.328484 -28.192121 -17.305613 301084 3648.916414
0.205000 0.205080 5980.108841 83.013888 1241.554179 17.671749 542.628797 332628 3648.916414
0.215000 0.215092 5375.093897 72.371905 965.244032 32.783714 -128.593901 367216 3648.916414
0.225000 0.225099 5149.853093 56.845581 786.430319 96.804651 -179.768058 400444 3648.916414
0.235000 0.235081 4665.289329 104.223022 594.721172 -76.889316 -370.080314 436500 3648.916414
0.245000 0.245077 4411.981028 55.763594 815.651064 -34.989683 -432.426854 475900 3648.916414
0.255000 0.255082 4127.386002 50.538443 645.553524 160.810804 143.028092 514900 3648.916414
0.265000 0.265074 3876.074430 47.809998 244.169229 3.754964 168.871972 555408 3648.916414
0.275000 0.275066 3648.253733 49.469583 306.706320 17.064810 152.419206 598684 3648.916414
0.285000 0.285066 3490.461724 59.765651 126.724747 6.065407 -116.225941 643228 3648.916414
0.295000 0.295058 3206.749744 46.229431 45.696799 29.674585 -10.375822 688036 3648.916414
