#Data file /home/DATA/sbrieden/Patchy_dr12_mocks/prerecon/original/Patchy-Mocks-DR12LOWZ-S-V5C-Portsmouth-mass_0086.dat
#Random file /home/DATA/sbrieden/Patchy_dr12_mocks/prerecon/original/Random-DR12LOWZ-S-V5C-x20.dat
#Number of data elements used: 99602
#Number of random elements used: 2007904
#Effective number of data elements weighted by wcol: 99602.000000
#Effective number of random elements weighted by wcol: 2007904.000000
#Effective number of data elements weighted by wcol*wsys: 99602.000000
#Effective number of random elements weighted by wcol*wsys: 2007904.000000
#Effective redshift value from data 0.331175
#Effective redshift value from randoms 0.330155
#Size of the Box 2500.000000 Mpc/h
#Area of the survey used 2501.000000 deg^2
#Value of alpha: 0.049689
#Normalization using data file
#Normalization using density
#Normalization 1.848827
#Shot noise factor 1.000000
#Shot noise value 3662.668830
#Type of Computation: FFT
#Number of grid cells: 512
#Type of Mass Assigment: TSC
#Type of Yamamoto: GridCenter
#Number of Interlacing steps: 2
#Grid Correction: yes
#Value of Om=0.310000
#Quadrupole as L2
#Octopole as L3
#Hexadecapole as L2L2
#k-centerbin	 k-eff	 Monopole-Pshotnoise	 Dipole	 Quadrupole	 Octopole	 Hexadecapole	 number of modes	 Pshotnoise
0.005000 0.007385 45028.628735 -4471.991311 1886.715681 -13291.379024 -23000.352512 250 3662.668830
0.015000 0.016012 78179.144861 2405.848532 22607.226048 -11036.680984 -41851.584396 1852 3662.668830
0.025000 0.025646 71982.412207 3609.209668 66477.495782 8383.350718 10508.944219 5020 3662.668830
0.035000 0.035469 51900.199519 2390.052833 25476.052369 8676.557353 8765.088311 9756 3662.668830
0.045000 0.045368 41865.327434 8.294339 13397.917978 808.166599 5182.778982 16108 3662.668830
0.055000 0.055314 32280.201070 1296.419477 9981.104836 935.274075 -711.220546 24064 3662.668830
0.065000 0.065258 28040.766718 464.473075 9306.606137 840.845832 -1083.712620 33396 3662.668830
0.075000 0.075209 25083.471879 636.035125 7693.992691 -186.614769 188.667170 44596 3662.668830
0.085000 0.085175 21020.226150 423.208397 8692.451590 768.951210 2829.587172 57124 3662.668830
0.095000 0.095157 17946.493500 344.231411 7102.561465 373.582377 61.924494 71620 3662.668830
0.105000 0.105162 15495.407250 321.770992 4853.754925 517.547917 212.252793 87552 3662.668830
0.115000 0.115148 13547.176092 178.258221 3618.525489 321.178715 685.158945 104524 3662.668830
0.125000 0.125146 12351.600282 228.579058 4259.100306 -49.610180 1652.295971 124228 3662.668830
0.135000 0.135146 11602.887828 10.962362 2413.462884 335.246316 309.857658 144204 3662.668830
0.145000 0.145132 10834.558545 200.466149 2851.334478 -157.205599 -902.526140 166492 3662.668830
0.155000 0.155114 9474.099531 215.736284 2453.303100 325.453873 697.592348 189964 3662.668830
0.165000 0.165102 8252.568568 115.431887 1996.099459 -93.332081 -6.044113 215640 3662.668830
0.175000 0.175105 7588.641317 92.945672 1951.618636 120.194137 496.280004 242836 3662.668830
0.185000 0.185097 7106.212305 113.011549 1842.862395 -30.562694 -40.595740 270556 3662.668830
0.195000 0.195085 6525.683006 77.912008 1198.486638 118.516303 -512.835024 301084 3662.668830
0.205000 0.205080 5886.088066 87.741598 969.916848 124.449645 460.322963 332628 3662.668830
0.215000 0.215092 5441.774611 99.119004 1124.363420 -8.054552 239.792131 367216 3662.668830
0.225000 0.225099 5198.095769 43.201174 939.864203 15.225704 376.880423 400444 3662.668830
0.235000 0.235081 4710.803553 86.441581 994.184924 -18.898891 183.047412 436500 3662.668830
0.245000 0.245077 4583.468920 28.382082 685.599074 93.674245 399.492476 475900 3662.668830
0.255000 0.255082 4338.233672 64.774708 272.734989 132.688779 444.446763 514900 3662.668830
0.265000 0.265074 3833.028906 76.857940 19.526818 -89.253853 301.108169 555408 3662.668830
0.275000 0.275066 3598.409560 59.190290 375.071330 -11.401878 13.281518 598684 3662.668830
0.285000 0.285066 3396.322851 42.616949 719.933236 39.651699 391.187241 643228 3662.668830
0.295000 0.295058 3274.344899 50.298671 136.062509 40.751018 405.500176 688036 3662.668830
