#Data file /home/DATA/sbrieden/Patchy_dr12_mocks/prerecon/original/Patchy-Mocks-DR12CMASS-N-V6C-Portsmouth-mass_0077.dat
#Random file /home/DATA/sbrieden/Patchy_dr12_mocks/prerecon/original/Random-DR12CMASS-N-V6C-x20.dat
#Number of data elements used: 588115
#Number of random elements used: 11797448
#Effective number of data elements weighted by wcol: 588115.000000
#Effective number of random elements weighted by wcol: 11797448.000000
#Effective number of data elements weighted by wcol*wsys: 588115.000000
#Effective number of random elements weighted by wcol*wsys: 11797448.000000
#Effective redshift value from data 0.598052
#Effective redshift value from randoms 0.597992
#Size of the Box 3700.000000 Mpc/h
#Area of the survey used 6851.000000 deg^2
#Value of alpha: 0.049916
#Normalization using data file
#Normalization using density
#Normalization 11.064894
#Shot noise factor 1.000000
#Shot noise value 4946.467135
#Type of Computation: FFT
#Number of grid cells: 512
#Type of Mass Assigment: TSC
#Type of Yamamoto: GridCenter
#Number of Interlacing steps: 2
#Grid Correction: yes
#Value of Om=0.310000
#Quadrupole as L2
#Octopole as L3
#Hexadecapole as L2L2
#k-centerbin	 k-eff	 Monopole-Pshotnoise	 Dipole	 Quadrupole	 Octopole	 Hexadecapole	 number of modes	 Pshotnoise
0.005000 0.007485 51134.998607 -2623.190976 -6264.503639 -3668.055271 16368.307043 846 4946.467135
0.015000 0.016072 75429.004260 2316.954924 47104.377581 2984.774950 1436.131500 6012 4946.467135
0.025000 0.025646 56268.675418 1274.113188 23845.721146 4341.322365 6891.799889 16172 4946.467135
0.035000 0.035469 48178.196401 1010.421151 16298.088023 488.119530 7837.691121 31764 4946.467135
0.045000 0.045378 38143.808010 513.410817 16944.815398 788.684398 -9148.404904 52164 4946.467135
0.055000 0.055280 31316.449332 408.822919 9703.773488 765.423987 -1260.635970 77396 4946.467135
0.065000 0.065232 26899.777799 337.098261 9313.510657 282.263261 -183.824102 108936 4946.467135
0.075000 0.075229 23874.356728 404.317447 10450.730886 444.048197 5255.843734 144980 4946.467135
0.085000 0.085193 20025.809662 258.587008 7779.901445 373.168409 879.535788 184854 4946.467135
0.095000 0.095166 16985.693437 209.586793 5594.672159 98.759761 -442.969369 232260 4946.467135
0.105000 0.105155 14634.820412 179.769941 6107.390407 101.425559 -422.874849 282884 4946.467135
0.115000 0.115131 13044.085241 168.641239 5367.430152 159.241643 -63.884992 339084 4946.467135
0.125000 0.125124 12069.077050 87.134339 4268.792942 203.904114 167.998161 401864 4946.467135
0.135000 0.135125 11081.628131 148.602907 3374.624709 47.275229 121.287660 468084 4946.467135
0.145000 0.145120 9663.733489 97.732643 3513.559616 119.563145 412.458612 539940 4946.467135
0.155000 0.155118 8560.447258 104.438656 2862.007140 166.372418 798.446504 617324 4946.467135
0.165000 0.165105 7657.653695 117.177905 2242.544718 -19.420996 525.064150 697452 4946.467135
0.175000 0.175088 7048.368807 66.408845 2235.992252 68.196492 367.675955 785846 4946.467135
0.185000 0.185089 6538.180801 64.245405 1722.495763 33.420106 -124.219842 879528 4946.467135
0.195000 0.195093 6170.808179 54.714336 1658.277893 66.264139 172.563391 976596 4946.467135
0.205000 0.205084 5711.341406 84.255684 1614.179292 21.251258 518.082704 1077212 4946.467135
0.215000 0.215076 5210.595122 68.081909 1395.726839 30.407306 372.580426 1186908 4946.467135
0.225000 0.225076 4886.125653 59.953098 957.340276 49.057481 252.096914 1299452 4946.467135
0.235000 0.235073 4599.492199 61.853738 831.311802 21.141807 399.080114 1417356 4946.467135
0.245000 0.245067 4223.845066 63.118371 790.612016 2.706536 136.163732 1539600 4946.467135
0.255000 0.255064 4061.672682 49.213804 654.002574 27.771785 -41.964119 1669820 4946.467135
0.265000 0.265061 3816.531431 49.580417 553.881577 33.441591 135.750879 1801086 4946.467135
0.275000 0.275060 3570.338110 69.008793 301.272459 9.981473 217.151596 1942244 4946.467135
0.285000 0.285062 3388.339777 55.574859 317.997154 5.243696 326.740079 2084796 4946.467135
0.295000 0.295057 3134.175923 55.655677 330.821801 -0.757265 96.577940 2231868 4946.467135
