#Data file /home/DATA/sbrieden/Patchy_dr12_mocks/prerecon/original/Patchy-Mocks-DR12LOWZ-N-V5C-Portsmouth-mass_0032.dat
#Random file /home/DATA/sbrieden/Patchy_dr12_mocks/prerecon/original/Random-DR12LOWZ-N-V5C-x20.dat
#Number of data elements used: 233986
#Number of random elements used: 4685323
#Effective number of data elements weighted by wcol: 233986.000000
#Effective number of random elements weighted by wcol: 4685323.000000
#Effective number of data elements weighted by wcol*wsys: 233986.000000
#Effective number of random elements weighted by wcol*wsys: 4685323.000000
#Effective redshift value from data 0.330487
#Effective redshift value from randoms 0.330058
#Size of the Box 2500.000000 Mpc/h
#Area of the survey used 5826.000000 deg^2
#Value of alpha: 0.049947
#Normalization using data file
#Normalization using density
#Normalization 4.338538
#Shot noise factor 1.000000
#Shot noise value 3656.327420
#Type of Computation: FFT
#Number of grid cells: 512
#Type of Mass Assigment: TSC
#Type of Yamamoto: GridCenter
#Number of Interlacing steps: 2
#Grid Correction: yes
#Value of Om=0.310000
#Quadrupole as L2
#Octopole as L3
#Hexadecapole as L2L2
#k-centerbin	 k-eff	 Monopole-Pshotnoise	 Dipole	 Quadrupole	 Octopole	 Hexadecapole	 number of modes	 Pshotnoise
0.005000 0.007385 64542.260046 4739.000512 -2999.222456 -18652.858430 -48110.968703 250 3656.327420
0.015000 0.016012 66675.009557 -358.807055 -7007.139566 -8717.120503 -22338.899099 1852 3656.327420
0.025000 0.025646 61684.635624 899.586616 6377.035863 5511.019219 11505.256902 5020 3656.327420
0.035000 0.035469 52734.798294 2476.306903 8931.118075 -3384.028308 2301.402186 9756 3656.327420
0.045000 0.045368 37936.035489 454.113849 14703.260363 1747.732634 -4347.311930 16108 3656.327420
0.055000 0.055314 31661.576501 1098.586006 13878.099490 1160.606416 6954.544437 24064 3656.327420
0.065000 0.065258 29734.699042 349.650304 9623.000835 522.144536 -2250.654413 33396 3656.327420
0.075000 0.075209 24977.563542 542.385258 7760.249063 607.646902 -2962.234292 44596 3656.327420
0.085000 0.085175 21694.934817 585.780202 6911.917584 174.203442 -1535.354184 57124 3656.327420
0.095000 0.095157 17997.508271 383.433503 7920.937456 397.049428 1126.025500 71620 3656.327420
0.105000 0.105162 15791.112944 178.594818 4342.645496 399.646484 -1065.286782 87552 3656.327420
0.115000 0.115148 14040.463795 294.345955 3710.216283 303.573724 1664.196072 104524 3656.327420
0.125000 0.125146 13000.243272 205.342407 3932.368120 154.555138 863.674685 124228 3656.327420
0.135000 0.135146 11456.579558 142.025607 3324.166075 24.521075 -661.062306 144204 3656.327420
0.145000 0.145132 9980.043510 191.390170 2311.372504 132.170669 -464.433135 166492 3656.327420
0.155000 0.155114 9210.163217 138.497945 2582.977437 140.853486 313.744768 189964 3656.327420
0.165000 0.165102 8331.222456 99.186778 2039.110644 78.351279 153.179424 215640 3656.327420
0.175000 0.175105 7530.009048 152.488365 1795.133888 108.755241 192.091721 242836 3656.327420
0.185000 0.185097 7066.481306 51.447094 1968.871924 -10.852734 227.897797 270556 3656.327420
0.195000 0.195085 6591.608998 73.913004 1611.640357 128.092108 267.891103 301084 3656.327420
0.205000 0.205080 6093.762246 107.591240 1307.554295 21.482587 458.636211 332628 3656.327420
0.215000 0.215092 5532.465544 65.666280 801.254394 57.548023 -69.011863 367216 3656.327420
0.225000 0.225099 5158.532759 79.679068 955.421185 42.581623 132.064385 400444 3656.327420
0.235000 0.235081 4826.817243 53.009994 665.057377 3.616581 214.398417 436500 3656.327420
0.245000 0.245077 4533.022060 68.230695 544.547823 56.890325 -50.952018 475900 3656.327420
0.255000 0.255082 4147.791994 84.561565 375.249992 -17.826734 38.879886 514900 3656.327420
0.265000 0.265074 3826.814582 45.930992 214.913712 38.578391 186.380178 555408 3656.327420
0.275000 0.275066 3636.587441 53.398413 319.146739 6.588447 146.350659 598684 3656.327420
0.285000 0.285066 3441.100966 55.579313 190.206525 28.972802 100.738287 643228 3656.327420
0.295000 0.295058 3197.073745 38.078312 -15.137964 57.272521 286.577341 688036 3656.327420
