#Data file /home/DATA/sbrieden/Patchy_dr12_mocks/prerecon/original/Patchy-Mocks-DR12LOWZ-N-V5C-Portsmouth-mass_0088.dat
#Random file /home/DATA/sbrieden/Patchy_dr12_mocks/prerecon/original/Random-DR12LOWZ-N-V5C-x20.dat
#Number of data elements used: 236043
#Number of random elements used: 4685323
#Effective number of data elements weighted by wcol: 236043.000000
#Effective number of random elements weighted by wcol: 4685323.000000
#Effective number of data elements weighted by wcol*wsys: 236043.000000
#Effective number of random elements weighted by wcol*wsys: 4685323.000000
#Effective redshift value from data 0.329770
#Effective redshift value from randoms 0.330058
#Size of the Box 2500.000000 Mpc/h
#Area of the survey used 5826.000000 deg^2
#Value of alpha: 0.050338
#Normalization using data file
#Normalization using density
#Normalization 4.374508
#Shot noise factor 1.000000
#Shot noise value 3651.441005
#Type of Computation: FFT
#Number of grid cells: 512
#Type of Mass Assigment: TSC
#Type of Yamamoto: GridCenter
#Number of Interlacing steps: 2
#Grid Correction: yes
#Value of Om=0.310000
#Quadrupole as L2
#Octopole as L3
#Hexadecapole as L2L2
#k-centerbin	 k-eff	 Monopole-Pshotnoise	 Dipole	 Quadrupole	 Octopole	 Hexadecapole	 number of modes	 Pshotnoise
0.005000 0.007385 69971.814205 -10924.424213 1358.177899 -42685.188159 -70048.127584 250 3651.441005
0.015000 0.016012 80433.077278 2041.116386 21953.595045 8586.042139 -10247.626269 1852 3651.441005
0.025000 0.025646 61027.647485 3031.364745 20760.616537 -4826.525820 -20222.180240 5020 3651.441005
0.035000 0.035469 53207.776326 1805.827843 26393.109499 4094.427470 3184.966244 9756 3651.441005
0.045000 0.045368 42497.245285 1371.178840 21782.308676 4670.314795 10389.200415 16108 3651.441005
0.055000 0.055314 33233.938439 533.854686 8108.605141 1038.383718 2320.850177 24064 3651.441005
0.065000 0.065258 28942.159519 633.335767 8953.311114 -397.089107 1389.160226 33396 3651.441005
0.075000 0.075209 25772.384430 590.915148 7387.956577 1483.191627 1368.870954 44596 3651.441005
0.085000 0.085175 22023.001199 342.755207 7892.932455 78.405864 1432.925959 57124 3651.441005
0.095000 0.095157 18340.907216 567.891155 5311.732505 438.634265 1278.860678 71620 3651.441005
0.105000 0.105162 15845.922447 306.832283 4270.911079 33.942558 1743.712529 87552 3651.441005
0.115000 0.115148 14056.948937 235.432347 4192.513740 153.424254 -9.937264 104524 3651.441005
0.125000 0.125146 12654.958081 94.104100 3478.478695 201.409199 -416.178953 124228 3651.441005
0.135000 0.135146 11693.320871 264.320820 2379.200946 247.492030 249.048368 144204 3651.441005
0.145000 0.145132 10102.778912 153.194780 3174.581596 -79.887763 1182.885177 166492 3651.441005
0.155000 0.155114 9341.982575 140.721257 2849.567637 272.339449 831.449053 189964 3651.441005
0.165000 0.165102 8318.613457 93.389214 2183.394217 129.670161 721.768656 215640 3651.441005
0.175000 0.175105 7514.428487 128.586480 1459.577984 68.239822 193.614841 242836 3651.441005
0.185000 0.185097 7063.898561 86.438859 1211.590542 -72.338568 593.379136 270556 3651.441005
0.195000 0.195085 6689.232929 73.908680 1747.535121 148.019768 320.642655 301084 3651.441005
0.205000 0.205080 5952.851001 109.128783 1247.480218 35.106242 523.447435 332628 3651.441005
0.215000 0.215092 5579.701129 32.061468 982.937199 43.649374 204.988035 367216 3651.441005
0.225000 0.225099 5407.049839 83.295141 801.211176 94.175251 371.253176 400444 3651.441005
0.235000 0.235081 4859.940523 87.180283 583.562955 10.716643 239.742409 436500 3651.441005
0.245000 0.245077 4494.923195 50.106229 387.402146 26.824791 230.235945 475900 3651.441005
0.255000 0.255082 4163.199930 88.532603 600.081608 -56.420939 -54.658113 514900 3651.441005
0.265000 0.265074 3963.120124 38.295989 387.112248 116.695878 247.710851 555408 3651.441005
0.275000 0.275066 3715.754841 56.431845 181.154057 -3.905295 414.706769 598684 3651.441005
0.285000 0.285066 3545.004934 27.117533 148.715615 63.096388 365.017483 643228 3651.441005
0.295000 0.295058 3326.618684 71.503697 -85.873229 -9.260122 258.409238 688036 3651.441005
