#Data file /home/DATA/sbrieden/Patchy_dr12_mocks/prerecon/original/Patchy-Mocks-DR12CMASS-S-V6C-Portsmouth-mass_0062.dat
#Random file /home/DATA/sbrieden/Patchy_dr12_mocks/prerecon/original/Random-DR12CMASS-S-V6C-x20.dat
#Number of data elements used: 215819
#Number of random elements used: 4288842
#Effective number of data elements weighted by wcol: 215819.000000
#Effective number of random elements weighted by wcol: 4288842.000000
#Effective number of data elements weighted by wcol*wsys: 215819.000000
#Effective number of random elements weighted by wcol*wsys: 4288842.000000
#Effective redshift value from data 0.597844
#Effective redshift value from randoms 0.597190
#Size of the Box 3700.000000 Mpc/h
#Area of the survey used 2525.000000 deg^2
#Value of alpha: 0.050474
#Normalization using data file
#Normalization using density
#Normalization 4.104656
#Shot noise factor 1.000000
#Shot noise value 4954.846637
#Type of Computation: FFT
#Number of grid cells: 512
#Type of Mass Assigment: TSC
#Type of Yamamoto: GridCenter
#Number of Interlacing steps: 2
#Grid Correction: yes
#Value of Om=0.310000
#Quadrupole as L2
#Octopole as L3
#Hexadecapole as L2L2
#k-centerbin	 k-eff	 Monopole-Pshotnoise	 Dipole	 Quadrupole	 Octopole	 Hexadecapole	 number of modes	 Pshotnoise
0.005000 0.007485 90444.080378 -6980.470704 -13534.623087 -3549.494670 -13182.597406 846 4954.846637
0.015000 0.016072 74445.798481 4459.427719 -383.840781 -3618.266572 12344.693515 6012 4954.846637
0.025000 0.025646 55389.764451 1416.355664 16200.733432 1310.049630 -2324.019473 16172 4954.846637
0.035000 0.035469 47490.512800 -165.723504 4743.871082 -203.678202 -220.219022 31764 4954.846637
0.045000 0.045378 40421.281652 1034.119392 12616.705895 866.315061 -1349.914563 52164 4954.846637
0.055000 0.055280 31765.789633 413.081413 13257.052986 751.375227 -698.062947 77396 4954.846637
0.065000 0.065232 27967.444298 429.473262 10185.865538 58.049886 561.605592 108936 4954.846637
0.075000 0.075229 24192.868516 208.892466 10568.731175 716.011170 770.579141 144980 4954.846637
0.085000 0.085193 20187.262322 559.292534 9196.750240 64.175025 2937.713695 184854 4954.846637
0.095000 0.095166 16650.621707 67.112191 6696.656908 476.021491 2212.885050 232260 4954.846637
0.105000 0.105155 15175.238899 170.730589 5931.898434 303.636434 3201.741076 282884 4954.846637
0.115000 0.115131 12773.212201 190.401227 4840.613183 -20.652259 746.179238 339084 4954.846637
0.125000 0.125124 11863.674305 89.148359 3636.712392 313.185962 587.408864 401864 4954.846637
0.135000 0.135125 10461.495534 128.419627 3703.615684 -45.969613 220.653358 468084 4954.846637
0.145000 0.145120 9542.028749 99.363178 3376.146509 116.172290 -234.620281 539940 4954.846637
0.155000 0.155118 8680.070566 118.483725 2551.532844 135.568068 1155.014309 617324 4954.846637
0.165000 0.165105 7834.819816 78.766582 2256.230617 -31.676726 1141.298253 697452 4954.846637
0.175000 0.175088 7195.585634 83.521275 2192.537828 119.691770 515.382176 785846 4954.846637
0.185000 0.185089 6477.004766 74.864717 1698.322625 -27.494402 95.083200 879528 4954.846637
0.195000 0.195093 6129.852016 68.496410 1492.139564 77.421414 90.736411 976596 4954.846637
0.205000 0.205084 5693.020788 49.166026 1219.740957 32.118783 185.889907 1077212 4954.846637
0.215000 0.215076 5349.830450 83.057838 1150.494673 20.850383 273.064215 1186908 4954.846637
0.225000 0.225076 4902.928988 62.772438 753.326458 55.073872 73.385303 1299452 4954.846637
0.235000 0.235073 4562.139981 54.308020 698.049738 -17.153746 198.073469 1417356 4954.846637
0.245000 0.245067 4376.709708 61.914650 605.183742 36.712664 64.867868 1539600 4954.846637
0.255000 0.255064 4043.115447 64.242401 683.023955 -1.475165 380.678736 1669820 4954.846637
0.265000 0.265061 3809.700978 65.961012 577.497677 10.972931 165.331658 1801086 4954.846637
0.275000 0.275060 3591.315747 41.894194 406.538372 38.886332 466.173161 1942244 4954.846637
0.285000 0.285062 3442.459369 55.443962 407.313341 -3.266950 100.780155 2084796 4954.846637
0.295000 0.295057 3099.785024 70.650036 326.527809 13.329587 144.998347 2231868 4954.846637
