#Data file /home/DATA/sbrieden/Patchy_dr12_mocks/prerecon/original/Patchy-Mocks-DR12CMASS-N-V6C-Portsmouth-mass_0018.dat
#Random file /home/DATA/sbrieden/Patchy_dr12_mocks/prerecon/original/Random-DR12CMASS-N-V6C-x20.dat
#Number of data elements used: 589116
#Number of random elements used: 11797448
#Effective number of data elements weighted by wcol: 589116.000000
#Effective number of random elements weighted by wcol: 11797448.000000
#Effective number of data elements weighted by wcol*wsys: 589116.000000
#Effective number of random elements weighted by wcol*wsys: 11797448.000000
#Effective redshift value from data 0.598097
#Effective redshift value from randoms 0.597992
#Size of the Box 3700.000000 Mpc/h
#Area of the survey used 6851.000000 deg^2
#Value of alpha: 0.049931
#Normalization using data file
#Normalization using density
#Normalization 11.072141
#Shot noise factor 1.000000
#Shot noise value 4941.228142
#Type of Computation: FFT
#Number of grid cells: 512
#Type of Mass Assigment: TSC
#Type of Yamamoto: GridCenter
#Number of Interlacing steps: 2
#Grid Correction: yes
#Value of Om=0.310000
#Quadrupole as L2
#Octopole as L3
#Hexadecapole as L2L2
#k-centerbin	 k-eff	 Monopole-Pshotnoise	 Dipole	 Quadrupole	 Octopole	 Hexadecapole	 number of modes	 Pshotnoise
0.005000 0.007485 31580.233232 -3514.094778 3820.988472 1832.294007 2774.518342 846 4941.228142
0.015000 0.016072 70024.490978 674.501297 26103.762802 -403.124200 -4904.605260 6012 4941.228142
0.025000 0.025646 62889.913998 1088.826049 23673.914900 3500.101823 16600.063071 16172 4941.228142
0.035000 0.035469 49428.581874 957.716771 21522.647399 830.065852 -1861.775678 31764 4941.228142
0.045000 0.045378 37916.762239 869.548489 16298.137948 1499.892155 -421.807516 52164 4941.228142
0.055000 0.055280 31376.404393 499.472042 9960.585911 244.812272 -1467.325543 77396 4941.228142
0.065000 0.065232 27271.771438 212.128136 11405.849432 494.601167 2040.366479 108936 4941.228142
0.075000 0.075229 24482.632053 438.335229 8465.724967 453.832559 2790.023397 144980 4941.228142
0.085000 0.085193 20394.289814 307.806933 7677.939826 61.495535 336.637360 184854 4941.228142
0.095000 0.095166 17032.645617 153.890706 6480.332683 424.468304 361.420673 232260 4941.228142
0.105000 0.105155 14744.524051 236.722091 5552.059868 172.397382 1859.076671 282884 4941.228142
0.115000 0.115131 13079.025962 141.707546 4916.454098 135.121389 944.736560 339084 4941.228142
0.125000 0.125124 11870.093555 102.388577 4038.373099 117.403472 1016.192977 401864 4941.228142
0.135000 0.135125 10860.949353 102.669359 3407.853820 126.994579 338.921737 468084 4941.228142
0.145000 0.145120 9828.080628 122.239717 3069.875797 39.035959 627.693955 539940 4941.228142
0.155000 0.155118 8731.034798 90.984080 2534.786318 98.517282 381.511096 617324 4941.228142
0.165000 0.165105 7934.440809 104.468871 2615.048534 52.329269 242.751985 697452 4941.228142
0.175000 0.175088 7280.192166 77.007344 2009.381926 61.744327 738.409482 785846 4941.228142
0.185000 0.185089 6616.867339 68.684972 1941.644792 77.078267 582.949952 879528 4941.228142
0.195000 0.195093 6291.797375 72.927354 1475.970704 11.794524 458.815917 976596 4941.228142
0.205000 0.205084 5870.275235 72.749731 1310.322672 55.664085 539.757077 1077212 4941.228142
0.215000 0.215076 5315.615716 60.958788 1223.549894 40.842519 480.317662 1186908 4941.228142
0.225000 0.225076 4995.733647 68.932323 851.582913 -7.466986 277.098564 1299452 4941.228142
0.235000 0.235073 4643.525110 66.566509 872.158378 29.769514 372.510928 1417356 4941.228142
0.245000 0.245067 4264.005420 53.499353 665.668979 46.463719 345.391914 1539600 4941.228142
0.255000 0.255064 4025.926339 58.036522 497.107504 1.058586 226.310093 1669820 4941.228142
0.265000 0.265061 3862.358247 48.570891 350.304634 30.452693 246.116442 1801086 4941.228142
0.275000 0.275060 3613.623748 68.489404 208.829830 -6.392819 175.091756 1942244 4941.228142
0.285000 0.285062 3343.301438 56.899366 309.916412 11.433804 88.308817 2084796 4941.228142
0.295000 0.295057 3162.457879 59.860987 163.775414 3.946526 284.492774 2231868 4941.228142
