#Data file /home/DATA/sbrieden/Patchy_dr12_mocks/prerecon/original/Patchy-Mocks-DR12LOWZ-S-V5C-Portsmouth-mass_0026.dat
#Random file /home/DATA/sbrieden/Patchy_dr12_mocks/prerecon/original/Random-DR12LOWZ-S-V5C-x20.dat
#Number of data elements used: 101510
#Number of random elements used: 2007904
#Effective number of data elements weighted by wcol: 101510.000000
#Effective number of random elements weighted by wcol: 2007904.000000
#Effective number of data elements weighted by wcol*wsys: 101510.000000
#Effective number of random elements weighted by wcol*wsys: 2007904.000000
#Effective redshift value from data 0.330838
#Effective redshift value from randoms 0.330155
#Size of the Box 2500.000000 Mpc/h
#Area of the survey used 2501.000000 deg^2
#Value of alpha: 0.050637
#Normalization using data file
#Normalization using density
#Normalization 1.883659
#Shot noise factor 1.000000
#Shot noise value 3669.187347
#Type of Computation: FFT
#Number of grid cells: 512
#Type of Mass Assigment: TSC
#Type of Yamamoto: GridCenter
#Number of Interlacing steps: 2
#Grid Correction: yes
#Value of Om=0.310000
#Quadrupole as L2
#Octopole as L3
#Hexadecapole as L2L2
#k-centerbin	 k-eff	 Monopole-Pshotnoise	 Dipole	 Quadrupole	 Octopole	 Hexadecapole	 number of modes	 Pshotnoise
0.005000 0.007385 22471.078223 -3568.849053 14935.901155 -2343.860074 5846.214564 250 3669.187347
0.015000 0.016012 65690.468601 1724.570480 33060.748164 7495.161085 7122.703092 1852 3669.187347
0.025000 0.025646 58104.973699 1383.248683 8317.567962 -2109.212439 -773.523884 5020 3669.187347
0.035000 0.035469 49702.211821 1629.542814 29451.846852 4395.727529 -2749.468987 9756 3669.187347
0.045000 0.045368 40934.512478 639.527133 12870.278248 2508.463072 7826.117786 16108 3669.187347
0.055000 0.055314 35770.088772 772.334538 10973.980219 1845.162823 654.418001 24064 3669.187347
0.065000 0.065258 29346.642514 851.341266 6414.660664 -688.089657 -810.554858 33396 3669.187347
0.075000 0.075209 26741.994629 237.370273 12407.283659 397.520243 534.436415 44596 3669.187347
0.085000 0.085175 22948.580301 607.796671 8002.874572 1486.817732 2065.483511 57124 3669.187347
0.095000 0.095157 18948.619507 458.306743 5461.700153 245.621428 2574.938007 71620 3669.187347
0.105000 0.105162 15557.205667 334.310985 3381.871369 -188.616347 -1274.644046 87552 3669.187347
0.115000 0.115148 14735.619267 102.260762 4237.537796 307.833089 564.608359 104524 3669.187347
0.125000 0.125146 12760.529037 208.758200 2820.932438 249.076914 -551.183181 124228 3669.187347
0.135000 0.135146 11769.259828 198.266990 2726.856208 30.187378 -429.195483 144204 3669.187347
0.145000 0.145132 10791.845531 225.804155 4137.822717 140.709250 1502.665082 166492 3669.187347
0.155000 0.155114 9492.283683 129.999795 2919.644634 84.275805 1060.402748 189964 3669.187347
0.165000 0.165102 8484.450286 122.131336 3193.954012 43.145235 433.598272 215640 3669.187347
0.175000 0.175105 7753.676913 151.841217 2351.672136 107.571722 96.991058 242836 3669.187347
0.185000 0.185097 7190.793793 62.158112 2209.174821 175.076751 388.967896 270556 3669.187347
0.195000 0.195085 6562.520376 93.717628 1686.397701 109.534077 444.309156 301084 3669.187347
0.205000 0.205080 5895.503637 114.285933 1448.188333 16.965239 893.312543 332628 3669.187347
0.215000 0.215092 5630.026156 41.258476 1633.210116 100.621945 738.347117 367216 3669.187347
0.225000 0.225099 5217.715135 79.665547 1073.380298 48.082858 1003.289474 400444 3669.187347
0.235000 0.235081 4957.419833 60.400297 1337.652791 -40.939578 447.239226 436500 3669.187347
0.245000 0.245077 4681.793282 62.762357 780.819979 84.522840 -2.828629 475900 3669.187347
0.255000 0.255082 4245.668663 61.653562 428.169916 121.734861 249.852799 514900 3669.187347
0.265000 0.265074 3997.617786 49.507305 205.771497 -38.505701 351.754779 555408 3669.187347
0.275000 0.275066 3827.994526 61.086844 285.321786 -45.677848 239.022615 598684 3669.187347
0.285000 0.285066 3546.304785 60.171726 221.624260 72.665113 -117.300053 643228 3669.187347
0.295000 0.295058 3216.380795 54.084379 104.319740 -22.635521 162.178853 688036 3669.187347
