#Data file /home/DATA/sbrieden/Patchy_dr12_mocks/prerecon/original/Patchy-Mocks-DR12LOWZ-S-V5C-Portsmouth-mass_0040.dat
#Random file /home/DATA/sbrieden/Patchy_dr12_mocks/prerecon/original/Random-DR12LOWZ-S-V5C-x20.dat
#Number of data elements used: 101403
#Number of random elements used: 2007904
#Effective number of data elements weighted by wcol: 101403.000000
#Effective number of random elements weighted by wcol: 2007904.000000
#Effective number of data elements weighted by wcol*wsys: 101403.000000
#Effective number of random elements weighted by wcol*wsys: 2007904.000000
#Effective redshift value from data 0.329358
#Effective redshift value from randoms 0.330155
#Size of the Box 2500.000000 Mpc/h
#Area of the survey used 2501.000000 deg^2
#Value of alpha: 0.050340
#Normalization using data file
#Normalization using density
#Normalization 1.876127
#Shot noise factor 1.000000
#Shot noise value 3642.428008
#Type of Computation: FFT
#Number of grid cells: 512
#Type of Mass Assigment: TSC
#Type of Yamamoto: GridCenter
#Number of Interlacing steps: 2
#Grid Correction: yes
#Value of Om=0.310000
#Quadrupole as L2
#Octopole as L3
#Hexadecapole as L2L2
#k-centerbin	 k-eff	 Monopole-Pshotnoise	 Dipole	 Quadrupole	 Octopole	 Hexadecapole	 number of modes	 Pshotnoise
0.005000 0.007385 39482.922472 -14929.926371 -3020.671066 6143.297322 12414.698033 250 3642.428008
0.015000 0.016012 69402.751060 5438.534537 7019.848134 1222.073121 10871.558479 1852 3642.428008
0.025000 0.025646 61038.361345 1884.212360 54954.667272 7488.248776 6403.525674 5020 3642.428008
0.035000 0.035469 51925.501432 1060.326565 16804.255994 3550.394128 -16760.253809 9756 3642.428008
0.045000 0.045368 41231.820279 729.737578 7005.651088 2988.446836 4448.939258 16108 3642.428008
0.055000 0.055314 35140.182261 1168.428022 12095.542951 -762.242173 4236.112456 24064 3642.428008
0.065000 0.065258 28991.732247 585.117236 6891.645103 290.960225 82.977026 33396 3642.428008
0.075000 0.075209 26518.993070 613.776885 12402.026874 863.505517 4023.284511 44596 3642.428008
0.085000 0.085175 21020.742824 541.517869 9212.563062 1022.786707 2509.763912 57124 3642.428008
0.095000 0.095157 18078.036488 392.404424 5328.403348 947.563197 5441.255760 71620 3642.428008
0.105000 0.105162 15304.374616 328.780527 3926.404057 -199.578631 -1536.073577 87552 3642.428008
0.115000 0.115148 12935.792759 207.536562 3552.041725 259.042127 -189.567718 104524 3642.428008
0.125000 0.125146 12698.850572 168.188952 3573.435725 -65.784518 180.170486 124228 3642.428008
0.135000 0.135146 11434.781247 156.882322 3371.226198 303.952876 -696.376811 144204 3642.428008
0.145000 0.145132 9927.127790 177.230501 2514.338411 106.174727 328.180505 166492 3642.428008
0.155000 0.155114 9071.927898 160.555927 1984.971942 53.394021 -174.831178 189964 3642.428008
0.165000 0.165102 8262.789444 76.457011 2257.839573 147.208421 509.700463 215640 3642.428008
0.175000 0.175105 7655.470566 116.428719 2300.438138 21.153500 95.978706 242836 3642.428008
0.185000 0.185097 6881.243509 118.286339 1232.825541 114.430679 161.177846 270556 3642.428008
0.195000 0.195085 6330.739071 74.293918 1410.103333 29.980875 -261.087540 301084 3642.428008
0.205000 0.205080 6054.310084 58.745094 1085.358618 35.119483 -143.342476 332628 3642.428008
0.215000 0.215092 5716.084905 92.553678 902.463335 59.501361 595.515710 367216 3642.428008
0.225000 0.225099 5153.345749 102.996824 935.696516 37.430521 335.313053 400444 3642.428008
0.235000 0.235081 4564.650416 58.588923 772.967202 38.951342 92.087961 436500 3642.428008
0.245000 0.245077 4501.357490 34.568015 706.618016 120.094319 605.859090 475900 3642.428008
0.255000 0.255082 4222.594495 63.795456 420.897611 -72.661665 485.775805 514900 3642.428008
0.265000 0.265074 3941.767501 50.352215 268.854213 74.849011 22.856864 555408 3642.428008
0.275000 0.275066 3748.611243 44.390403 248.949509 54.838908 301.929031 598684 3642.428008
0.285000 0.285066 3580.009666 59.102714 244.317579 -58.867286 443.171215 643228 3642.428008
0.295000 0.295058 3403.566162 64.301916 166.967928 10.499928 14.933823 688036 3642.428008
