#Data file /home/DATA/sbrieden/Patchy_dr12_mocks/prerecon/original/Patchy-Mocks-DR12CMASS-S-V6C-Portsmouth-mass_0055.dat
#Random file /home/DATA/sbrieden/Patchy_dr12_mocks/prerecon/original/Random-DR12CMASS-S-V6C-x20.dat
#Number of data elements used: 216311
#Number of random elements used: 4288842
#Effective number of data elements weighted by wcol: 216311.000000
#Effective number of random elements weighted by wcol: 4288842.000000
#Effective number of data elements weighted by wcol*wsys: 216311.000000
#Effective number of random elements weighted by wcol*wsys: 4288842.000000
#Effective redshift value from data 0.596366
#Effective redshift value from randoms 0.597190
#Size of the Box 3700.000000 Mpc/h
#Area of the survey used 2525.000000 deg^2
#Value of alpha: 0.050339
#Normalization using data file
#Normalization using density
#Normalization 4.102813
#Shot noise factor 1.000000
#Shot noise value 4920.742108
#Type of Computation: FFT
#Number of grid cells: 512
#Type of Mass Assigment: TSC
#Type of Yamamoto: GridCenter
#Number of Interlacing steps: 2
#Grid Correction: yes
#Value of Om=0.310000
#Quadrupole as L2
#Octopole as L3
#Hexadecapole as L2L2
#k-centerbin	 k-eff	 Monopole-Pshotnoise	 Dipole	 Quadrupole	 Octopole	 Hexadecapole	 number of modes	 Pshotnoise
0.005000 0.007485 68869.096859 -644.949538 -3870.686629 9156.371705 39817.716356 846 4920.742108
0.015000 0.016072 61334.702704 3399.310386 27136.870888 2207.063993 8394.888910 6012 4920.742108
0.025000 0.025646 47654.441946 -567.029077 20001.362577 3705.552089 -3301.546126 16172 4920.742108
0.035000 0.035469 45666.543390 1073.943595 5860.794133 -259.732741 4121.046834 31764 4920.742108
0.045000 0.045378 37619.707327 651.826122 10707.981409 -303.859878 -4525.985421 52164 4920.742108
0.055000 0.055280 32618.660840 128.409668 7548.449288 562.611501 -3797.542443 77396 4920.742108
0.065000 0.065232 27905.487559 488.474637 7289.820856 378.298605 -1205.330142 108936 4920.742108
0.075000 0.075229 23354.159009 401.108050 8718.939547 206.356566 102.589519 144980 4920.742108
0.085000 0.085193 19588.452737 177.364709 5858.519266 500.890546 1100.246522 184854 4920.742108
0.095000 0.095166 17267.187565 292.675650 5663.161393 -37.544077 139.248776 232260 4920.742108
0.105000 0.105155 14792.638460 198.312444 4073.917783 93.030082 -1159.270300 282884 4920.742108
0.115000 0.115131 12690.523595 132.525893 4273.727133 176.019179 66.334798 339084 4920.742108
0.125000 0.125124 11447.710907 134.177856 3122.002342 151.330475 261.178496 401864 4920.742108
0.135000 0.135125 10710.300001 83.546137 2535.993652 -28.401966 148.019630 468084 4920.742108
0.145000 0.145120 9766.720623 123.917627 2332.269189 110.492792 -661.123024 539940 4920.742108
0.155000 0.155118 8418.809456 116.220267 2281.941804 -28.173330 -96.221130 617324 4920.742108
0.165000 0.165105 7873.872042 60.612628 2304.093266 159.184341 -546.537670 697452 4920.742108
0.175000 0.175088 7073.430144 69.572507 1701.950062 -1.093895 -99.754354 785846 4920.742108
0.185000 0.185089 6745.498025 75.498319 1488.549685 112.751044 208.141417 879528 4920.742108
0.195000 0.195093 6129.335170 75.261561 880.496785 -12.973539 -15.590292 976596 4920.742108
0.205000 0.205084 5647.494438 85.153359 1077.116294 29.697355 399.444350 1077212 4920.742108
0.215000 0.215076 5198.789093 61.038305 1230.717547 -26.967630 -70.798051 1186908 4920.742108
0.225000 0.225076 4979.933210 60.098270 1103.710101 55.659787 109.849375 1299452 4920.742108
0.235000 0.235073 4447.589729 56.493445 738.677134 37.815134 139.542264 1417356 4920.742108
0.245000 0.245067 4254.338228 69.028775 437.063187 -19.576687 418.130402 1539600 4920.742108
0.255000 0.255064 3988.943516 62.265644 601.435631 51.390674 189.997856 1669820 4920.742108
0.265000 0.265061 3793.675204 38.630200 420.618106 12.548777 273.130135 1801086 4920.742108
0.275000 0.275060 3648.644879 56.906018 351.927319 25.501439 248.147459 1942244 4920.742108
0.285000 0.285062 3353.325911 67.631244 197.691501 -10.131402 248.822211 2084796 4920.742108
0.295000 0.295057 3213.403874 49.330787 270.308241 -0.377964 331.267755 2231868 4920.742108
