#Data file /home/DATA/sbrieden/Patchy_dr12_mocks/prerecon/original/Patchy-Mocks-DR12LOWZ-N-V5C-Portsmouth-mass_0029.dat
#Random file /home/DATA/sbrieden/Patchy_dr12_mocks/prerecon/original/Random-DR12LOWZ-N-V5C-x20.dat
#Number of data elements used: 234248
#Number of random elements used: 4685323
#Effective number of data elements weighted by wcol: 234248.000000
#Effective number of random elements weighted by wcol: 4685323.000000
#Effective number of data elements weighted by wcol*wsys: 234248.000000
#Effective number of random elements weighted by wcol*wsys: 4685323.000000
#Effective redshift value from data 0.329797
#Effective redshift value from randoms 0.330058
#Size of the Box 2500.000000 Mpc/h
#Area of the survey used 5826.000000 deg^2
#Value of alpha: 0.050006
#Normalization using data file
#Normalization using density
#Normalization 4.343849
#Shot noise factor 1.000000
#Shot noise value 3655.816894
#Type of Computation: FFT
#Number of grid cells: 512
#Type of Mass Assigment: TSC
#Type of Yamamoto: GridCenter
#Number of Interlacing steps: 2
#Grid Correction: yes
#Value of Om=0.310000
#Quadrupole as L2
#Octopole as L3
#Hexadecapole as L2L2
#k-centerbin	 k-eff	 Monopole-Pshotnoise	 Dipole	 Quadrupole	 Octopole	 Hexadecapole	 number of modes	 Pshotnoise
0.005000 0.007385 49509.839319 1245.029241 26249.894219 -531.129145 -6814.176790 250 3655.816894
0.015000 0.016012 57601.533388 225.311622 50320.716136 22337.707095 24572.663906 1852 3655.816894
0.025000 0.025646 58081.500146 256.261480 22684.281163 2339.672602 4064.007808 5020 3655.816894
0.035000 0.035469 51334.073370 2732.300064 27784.188408 5156.756202 8388.832593 9756 3655.816894
0.045000 0.045368 37288.842150 1022.345592 8955.226594 -584.897861 -3340.885858 16108 3655.816894
0.055000 0.055314 33659.990589 561.275311 16141.761124 603.889772 -1968.600545 24064 3655.816894
0.065000 0.065258 29455.850616 318.342417 9778.907191 1638.146173 -194.582444 33396 3655.816894
0.075000 0.075209 26742.289384 729.742883 6200.055379 178.517869 -2062.213390 44596 3655.816894
0.085000 0.085175 21723.759431 493.431803 6260.925707 671.151103 -598.618646 57124 3655.816894
0.095000 0.095157 17621.753933 562.382424 5423.810537 -161.981643 1189.995376 71620 3655.816894
0.105000 0.105162 15153.221992 163.845962 4899.751886 644.404520 316.691237 87552 3655.816894
0.115000 0.115148 13618.230160 128.068221 3418.011556 95.028544 1086.508161 104524 3655.816894
0.125000 0.125146 12864.753641 138.773408 4398.387080 88.852087 -215.312432 124228 3655.816894
0.135000 0.135146 11720.182132 245.366870 3049.397603 151.254069 -401.708133 144204 3655.816894
0.145000 0.145132 10306.687456 221.272025 2790.182540 184.000898 476.514276 166492 3655.816894
0.155000 0.155114 8885.545297 127.690343 2366.675780 82.115405 709.730905 189964 3655.816894
0.165000 0.165102 8398.627101 100.912483 2267.448711 11.142687 590.989029 215640 3655.816894
0.175000 0.175105 7605.828710 104.879905 1820.347216 107.650025 193.716618 242836 3655.816894
0.185000 0.185097 7071.928878 107.205383 1570.262600 53.198623 -14.222061 270556 3655.816894
0.195000 0.195085 6440.810195 99.317822 1667.358413 84.735161 351.599334 301084 3655.816894
0.205000 0.205080 5893.201465 75.710479 1099.024057 80.223231 615.503652 332628 3655.816894
0.215000 0.215092 5652.253220 57.366319 988.014072 45.440076 234.500223 367216 3655.816894
0.225000 0.225099 5099.531342 89.340370 875.582704 -23.030899 330.896701 400444 3655.816894
0.235000 0.235081 4822.159717 46.884988 782.061796 95.841395 360.793764 436500 3655.816894
0.245000 0.245077 4535.418007 74.061590 897.923137 -15.542574 350.975783 475900 3655.816894
0.255000 0.255082 4227.874580 55.219273 507.958772 81.330677 557.147128 514900 3655.816894
0.265000 0.265074 3961.617154 64.920597 492.632064 2.819965 550.708863 555408 3655.816894
0.275000 0.275066 3666.011425 54.189533 255.925477 -15.380597 211.451801 598684 3655.816894
0.285000 0.285066 3485.033379 61.481272 186.800884 25.538561 0.100744 643228 3655.816894
0.295000 0.295058 3230.589590 34.026188 261.813739 31.461671 176.547205 688036 3655.816894
