#Data file /home/DATA/sbrieden/Patchy_dr12_mocks/prerecon/original/Patchy-Mocks-DR12CMASS-N-V6C-Portsmouth-mass_0061.dat
#Random file /home/DATA/sbrieden/Patchy_dr12_mocks/prerecon/original/Random-DR12CMASS-N-V6C-x20.dat
#Number of data elements used: 591538
#Number of random elements used: 11797448
#Effective number of data elements weighted by wcol: 591538.000000
#Effective number of random elements weighted by wcol: 11797448.000000
#Effective number of data elements weighted by wcol*wsys: 591538.000000
#Effective number of random elements weighted by wcol*wsys: 11797448.000000
#Effective redshift value from data 0.598032
#Effective redshift value from randoms 0.597992
#Size of the Box 3700.000000 Mpc/h
#Area of the survey used 6851.000000 deg^2
#Value of alpha: 0.050095
#Normalization using data file
#Normalization using density
#Normalization 11.110966
#Shot noise factor 1.000000
#Shot noise value 4938.681476
#Type of Computation: FFT
#Number of grid cells: 512
#Type of Mass Assigment: TSC
#Type of Yamamoto: GridCenter
#Number of Interlacing steps: 2
#Grid Correction: yes
#Value of Om=0.310000
#Quadrupole as L2
#Octopole as L3
#Hexadecapole as L2L2
#k-centerbin	 k-eff	 Monopole-Pshotnoise	 Dipole	 Quadrupole	 Octopole	 Hexadecapole	 number of modes	 Pshotnoise
0.005000 0.007485 55552.883802 1268.173546 31706.057769 -5993.900498 -32804.344016 846 4938.681476
0.015000 0.016072 67550.550908 -2663.921224 24698.642501 7803.783644 11127.164882 6012 4938.681476
0.025000 0.025646 60357.581092 2763.038815 19744.703567 -340.303821 -11367.940096 16172 4938.681476
0.035000 0.035469 50252.255833 685.866668 20189.539829 1253.589207 207.369310 31764 4938.681476
0.045000 0.045378 37969.150952 784.980594 14359.655023 1258.038092 4476.271535 52164 4938.681476
0.055000 0.055280 32309.090878 407.083298 13089.271460 299.842484 -2549.575680 77396 4938.681476
0.065000 0.065232 27748.446156 326.951570 9903.654582 537.249805 487.476472 108936 4938.681476
0.075000 0.075229 23552.787508 383.896405 9567.487593 336.642037 1275.320876 144980 4938.681476
0.085000 0.085193 20060.536177 320.386121 7177.145906 314.631122 -591.460114 184854 4938.681476
0.095000 0.095166 16906.670086 200.827068 6460.720419 101.592101 -401.744265 232260 4938.681476
0.105000 0.105155 14671.375353 187.763575 5324.277202 301.677298 134.422610 282884 4938.681476
0.115000 0.115131 13090.180514 106.499162 4728.951298 75.803823 948.641351 339084 4938.681476
0.125000 0.125124 11918.450856 148.937680 4074.600554 149.281342 372.503167 401864 4938.681476
0.135000 0.135125 10807.044832 110.937857 3809.992125 58.366127 662.992585 468084 4938.681476
0.145000 0.145120 9688.782782 131.218188 3063.666232 87.081721 20.590741 539940 4938.681476
0.155000 0.155118 8612.445642 105.718177 2422.411641 125.924230 406.442380 617324 4938.681476
0.165000 0.165105 7766.943373 72.853299 1963.232796 30.621392 396.813895 697452 4938.681476
0.175000 0.175088 7202.403797 77.670920 1845.744008 77.575964 363.869037 785846 4938.681476
0.185000 0.185089 6643.490264 61.749347 1734.439031 43.735692 202.731554 879528 4938.681476
0.195000 0.195093 6313.628977 74.629189 1144.513759 5.686995 69.244390 976596 4938.681476
0.205000 0.205084 5743.705463 76.018027 1497.338441 50.121738 -50.058712 1077212 4938.681476
0.215000 0.215076 5288.473918 58.487284 952.558183 55.799726 317.376436 1186908 4938.681476
0.225000 0.225076 4890.086835 75.200213 975.142284 0.775985 258.752184 1299452 4938.681476
0.235000 0.235073 4579.499707 49.460168 644.340010 28.148104 174.428692 1417356 4938.681476
0.245000 0.245067 4306.211177 72.503309 649.595733 7.629214 128.483919 1539600 4938.681476
0.255000 0.255064 4051.153661 43.991184 590.870178 25.577413 352.154193 1669820 4938.681476
0.265000 0.265061 3849.924364 63.008994 417.551799 19.192382 329.983216 1801086 4938.681476
0.275000 0.275060 3581.338937 51.243699 287.197800 27.510671 478.811317 1942244 4938.681476
0.285000 0.285062 3363.022138 63.090894 134.247100 -20.593462 166.920920 2084796 4938.681476
0.295000 0.295057 3160.575645 54.887049 124.320347 36.440571 145.678725 2231868 4938.681476
