#Data file /home/DATA/sbrieden/Patchy_dr12_mocks/prerecon/original/Patchy-Mocks-DR12CMASS-N-V6C-Portsmouth-mass_0047.dat
#Random file /home/DATA/sbrieden/Patchy_dr12_mocks/prerecon/original/Random-DR12CMASS-N-V6C-x20.dat
#Number of data elements used: 587808
#Number of random elements used: 11797448
#Effective number of data elements weighted by wcol: 587808.000000
#Effective number of random elements weighted by wcol: 11797448.000000
#Effective number of data elements weighted by wcol*wsys: 587808.000000
#Effective number of random elements weighted by wcol*wsys: 11797448.000000
#Effective redshift value from data 0.598849
#Effective redshift value from randoms 0.597992
#Size of the Box 3700.000000 Mpc/h
#Area of the survey used 6851.000000 deg^2
#Value of alpha: 0.050048
#Normalization using data file
#Normalization using density
#Normalization 11.075301
#Shot noise factor 1.000000
#Shot noise value 4972.510271
#Type of Computation: FFT
#Number of grid cells: 512
#Type of Mass Assigment: TSC
#Type of Yamamoto: GridCenter
#Number of Interlacing steps: 2
#Grid Correction: yes
#Value of Om=0.310000
#Quadrupole as L2
#Octopole as L3
#Hexadecapole as L2L2
#k-centerbin	 k-eff	 Monopole-Pshotnoise	 Dipole	 Quadrupole	 Octopole	 Hexadecapole	 number of modes	 Pshotnoise
0.005000 0.007485 56682.491648 -309.090281 35802.227183 20311.714371 45341.646000 846 4972.510271
0.015000 0.016072 77284.918186 1879.414619 34736.959803 2088.680963 2768.684283 6012 4972.510271
0.025000 0.025646 63368.158029 1728.834784 33832.620160 1423.047716 -11400.167173 16172 4972.510271
0.035000 0.035469 47579.603838 785.886548 26049.883272 4148.180721 8971.487146 31764 4972.510271
0.045000 0.045378 37785.943725 683.252969 12112.386618 844.972270 1111.360444 52164 4972.510271
0.055000 0.055280 31904.994044 415.027775 11195.142933 221.848210 -1006.536289 77396 4972.510271
0.065000 0.065232 27446.068209 417.330336 11001.683274 600.219222 3638.016396 108936 4972.510271
0.075000 0.075229 23030.609631 218.096330 7967.407412 413.061511 -17.439907 144980 4972.510271
0.085000 0.085193 19698.319352 303.880314 7870.573293 104.158461 2028.055129 184854 4972.510271
0.095000 0.095166 17106.095474 272.004430 7452.558635 175.445961 -266.657697 232260 4972.510271
0.105000 0.105155 14920.611398 165.791987 5980.266115 374.391628 806.847018 282884 4972.510271
0.115000 0.115131 12609.955452 140.127346 4433.883887 114.211533 669.555081 339084 4972.510271
0.125000 0.125124 11898.737654 99.527090 4028.113287 141.650495 695.272351 401864 4972.510271
0.135000 0.135125 10979.571113 101.708799 2926.888507 95.183278 640.379490 468084 4972.510271
0.145000 0.145120 9778.588257 164.453256 2663.694092 -51.916301 257.369268 539940 4972.510271
0.155000 0.155118 8569.488115 88.634716 2807.050974 99.815115 81.112956 617324 4972.510271
0.165000 0.165105 7844.588495 75.910423 2414.251380 80.381518 493.390042 697452 4972.510271
0.175000 0.175088 7187.973515 80.608687 2001.686536 95.488486 524.083124 785846 4972.510271
0.185000 0.185089 6707.650479 66.841447 1580.089006 44.507644 507.920005 879528 4972.510271
0.195000 0.195093 6268.098328 66.739109 1517.628912 28.112336 226.561309 976596 4972.510271
0.205000 0.205084 5748.781410 87.076316 1298.162872 30.593728 586.042854 1077212 4972.510271
0.215000 0.215076 5293.359970 64.413292 958.587680 12.019586 251.473797 1186908 4972.510271
0.225000 0.225076 4978.379792 66.169613 902.638224 19.939009 86.734431 1299452 4972.510271
0.235000 0.235073 4548.539243 49.098973 726.357761 43.697301 -14.419938 1417356 4972.510271
0.245000 0.245067 4314.386158 61.690060 661.498281 12.110806 199.989486 1539600 4972.510271
0.255000 0.255064 4126.014369 63.021924 528.668479 6.463677 96.858412 1669820 4972.510271
0.265000 0.265061 3811.795704 56.042634 401.259989 22.344639 118.820495 1801086 4972.510271
0.275000 0.275060 3579.133786 58.909362 258.954151 28.886922 229.972799 1942244 4972.510271
0.285000 0.285062 3337.282459 60.994195 339.954176 -14.485488 254.267146 2084796 4972.510271
0.295000 0.295057 3157.269122 51.780607 147.503654 28.091520 260.675436 2231868 4972.510271
