#Data file /home/DATA/sbrieden/Patchy_dr12_mocks/prerecon/original/Patchy-Mocks-DR12LOWZ-N-V5C-Portsmouth-mass_0026.dat
#Random file /home/DATA/sbrieden/Patchy_dr12_mocks/prerecon/original/Random-DR12LOWZ-N-V5C-x20.dat
#Number of data elements used: 235880
#Number of random elements used: 4685323
#Effective number of data elements weighted by wcol: 235880.000000
#Effective number of random elements weighted by wcol: 4685323.000000
#Effective number of data elements weighted by wcol*wsys: 235880.000000
#Effective number of random elements weighted by wcol*wsys: 4685323.000000
#Effective redshift value from data 0.330236
#Effective redshift value from randoms 0.330058
#Size of the Box 2500.000000 Mpc/h
#Area of the survey used 5826.000000 deg^2
#Value of alpha: 0.050303
#Normalization using data file
#Normalization using density
#Normalization 4.371150
#Shot noise factor 1.000000
#Shot noise value 3652.351057
#Type of Computation: FFT
#Number of grid cells: 512
#Type of Mass Assigment: TSC
#Type of Yamamoto: GridCenter
#Number of Interlacing steps: 2
#Grid Correction: yes
#Value of Om=0.310000
#Quadrupole as L2
#Octopole as L3
#Hexadecapole as L2L2
#k-centerbin	 k-eff	 Monopole-Pshotnoise	 Dipole	 Quadrupole	 Octopole	 Hexadecapole	 number of modes	 Pshotnoise
0.005000 0.007385 47942.372421 -3513.896104 -11922.062701 2198.344647 2511.923576 250 3652.351057
0.015000 0.016012 71358.110400 -251.547284 1261.427386 1850.479034 25933.341167 1852 3652.351057
0.025000 0.025646 67057.344550 2993.933781 38796.718678 88.455437 -12265.784349 5020 3652.351057
0.035000 0.035469 51626.429523 1946.648325 22003.672257 1469.036386 -4078.001909 9756 3652.351057
0.045000 0.045368 41512.236874 1219.502400 24539.855464 3361.740562 2357.220547 16108 3652.351057
0.055000 0.055314 35676.982114 987.910995 20575.692704 1224.193544 6824.128760 24064 3652.351057
0.065000 0.065258 30699.648994 161.764057 15065.348895 1391.510507 788.534539 33396 3652.351057
0.075000 0.075209 26900.022697 485.992645 7930.484722 1616.760478 4217.020671 44596 3652.351057
0.085000 0.085175 21637.524851 784.984841 6722.197942 -401.426473 -1792.253253 57124 3652.351057
0.095000 0.095157 18956.168110 429.411875 7909.050966 340.175012 -1091.963836 71620 3652.351057
0.105000 0.105162 16132.770784 246.430479 5592.879496 501.983374 -361.982039 87552 3652.351057
0.115000 0.115148 14472.105204 254.839831 5678.164190 48.234020 788.935869 104524 3652.351057
0.125000 0.125146 12938.720986 127.062622 4563.611049 408.098374 -1281.602494 124228 3652.351057
0.135000 0.135146 11440.777637 239.632907 3483.368767 73.323000 -53.612227 144204 3652.351057
0.145000 0.145132 10440.977469 181.785321 3269.139081 151.296321 487.430721 166492 3652.351057
0.155000 0.155114 9496.392547 101.294434 2756.397497 238.152784 340.662514 189964 3652.351057
0.165000 0.165102 8492.389920 123.598842 2028.659989 55.024340 880.916355 215640 3652.351057
0.175000 0.175105 7804.019094 90.694590 1852.463168 97.270816 447.382001 242836 3652.351057
0.185000 0.185097 7231.450523 137.941633 1406.830248 75.758130 275.420130 270556 3652.351057
0.195000 0.195085 6515.308492 60.298153 1411.544519 12.548810 485.555755 301084 3652.351057
0.205000 0.205080 6177.377198 95.044263 1509.300289 18.545255 -192.282580 332628 3652.351057
0.215000 0.215092 5680.758694 90.914159 1390.627288 42.092843 393.852044 367216 3652.351057
0.225000 0.225099 5280.301272 70.197690 1341.445856 79.326322 234.097180 400444 3652.351057
0.235000 0.235081 4877.434375 70.029891 1009.849844 -3.152317 282.871832 436500 3652.351057
0.245000 0.245077 4513.163567 72.583341 793.024295 37.237227 221.646788 475900 3652.351057
0.255000 0.255082 4274.272674 46.826328 604.721318 49.107177 -23.399147 514900 3652.351057
0.265000 0.265074 3995.502967 53.773774 503.806133 38.761648 72.878066 555408 3652.351057
0.275000 0.275066 3717.693203 53.192325 505.087170 39.417405 457.246719 598684 3652.351057
0.285000 0.285066 3547.212007 62.530319 296.646165 -17.330275 226.956643 643228 3652.351057
0.295000 0.295058 3327.481787 48.803948 97.552756 36.775290 212.208173 688036 3652.351057
