#Data file /home/DATA/sbrieden/Patchy_dr12_mocks/prerecon/original/Patchy-Mocks-DR12CMASS-S-V6C-Portsmouth-mass_0067.dat
#Random file /home/DATA/sbrieden/Patchy_dr12_mocks/prerecon/original/Random-DR12CMASS-S-V6C-x20.dat
#Number of data elements used: 216648
#Number of random elements used: 4288842
#Effective number of data elements weighted by wcol: 216648.000000
#Effective number of random elements weighted by wcol: 4288842.000000
#Effective number of data elements weighted by wcol*wsys: 216648.000000
#Effective number of random elements weighted by wcol*wsys: 4288842.000000
#Effective redshift value from data 0.596690
#Effective redshift value from randoms 0.597190
#Size of the Box 3700.000000 Mpc/h
#Area of the survey used 2525.000000 deg^2
#Value of alpha: 0.050442
#Normalization using data file
#Normalization using density
#Normalization 4.113418
#Shot noise factor 1.000000
#Shot noise value 4913.289902
#Type of Computation: FFT
#Number of grid cells: 512
#Type of Mass Assigment: TSC
#Type of Yamamoto: GridCenter
#Number of Interlacing steps: 2
#Grid Correction: yes
#Value of Om=0.310000
#Quadrupole as L2
#Octopole as L3
#Hexadecapole as L2L2
#k-centerbin	 k-eff	 Monopole-Pshotnoise	 Dipole	 Quadrupole	 Octopole	 Hexadecapole	 number of modes	 Pshotnoise
0.005000 0.007485 65811.242814 3516.230448 8994.843221 -15396.984349 -32597.580015 846 4913.289902
0.015000 0.016072 80977.370958 85.220917 22481.604860 3921.456578 -1946.022225 6012 4913.289902
0.025000 0.025646 61096.889520 2056.871758 26629.370853 2864.605970 3521.416790 16172 4913.289902
0.035000 0.035469 47727.343908 811.660145 12015.465174 781.732014 2023.222153 31764 4913.289902
0.045000 0.045378 35752.661743 626.442237 14291.255490 106.020510 2263.996645 52164 4913.289902
0.055000 0.055280 32238.801391 637.562758 15192.635859 1217.227165 6410.720270 77396 4913.289902
0.065000 0.065232 28442.513099 262.510955 10298.982372 368.531126 4432.941829 108936 4913.289902
0.075000 0.075229 23813.347663 189.853863 8973.085523 573.881013 1102.283792 144980 4913.289902
0.085000 0.085193 20453.333844 338.098335 6544.895026 399.684700 -833.476231 184854 4913.289902
0.095000 0.095166 16943.848573 265.604503 4699.524195 -107.846424 -872.493404 232260 4913.289902
0.105000 0.105155 14633.777953 184.402471 4435.697293 367.839452 -330.228562 282884 4913.289902
0.115000 0.115131 12846.504979 161.589556 4258.541423 21.412932 -412.654252 339084 4913.289902
0.125000 0.125124 11375.875520 103.331761 3756.503422 106.347641 656.579267 401864 4913.289902
0.135000 0.135125 10595.530997 91.795763 3048.136864 39.064892 -677.764623 468084 4913.289902
0.145000 0.145120 9633.245023 113.798996 3256.596919 71.428362 -488.413817 539940 4913.289902
0.155000 0.155118 8582.539154 114.306823 1960.842452 146.072696 -326.810501 617324 4913.289902
0.165000 0.165105 7593.844685 84.385560 1876.755824 -3.725055 472.880343 697452 4913.289902
0.175000 0.175088 7131.294126 98.674206 1638.641477 12.162681 181.525131 785846 4913.289902
0.185000 0.185089 6697.298839 39.494751 1848.566869 74.986572 -247.778927 879528 4913.289902
0.195000 0.195093 6185.873401 91.805580 1418.450049 28.761301 386.237648 976596 4913.289902
0.205000 0.205084 5696.579472 57.491272 1395.046420 38.126766 341.820560 1077212 4913.289902
0.215000 0.215076 5211.899730 71.275960 1014.278345 32.857971 -173.059447 1186908 4913.289902
0.225000 0.225076 4855.753195 64.118235 617.831761 49.224666 129.103817 1299452 4913.289902
0.235000 0.235073 4608.043050 54.735198 717.800775 -37.728457 230.312598 1417356 4913.289902
0.245000 0.245067 4373.480885 58.797897 687.249364 48.028728 410.130685 1539600 4913.289902
0.255000 0.255064 4006.478610 66.576913 690.924084 -1.428226 88.691732 1669820 4913.289902
0.265000 0.265061 3746.094301 61.820510 472.247604 51.678269 190.192538 1801086 4913.289902
0.275000 0.275060 3407.185412 56.083170 279.408032 -4.588350 489.139075 1942244 4913.289902
0.285000 0.285062 3261.557078 47.350337 45.674276 41.641801 520.480276 2084796 4913.289902
0.295000 0.295057 3194.896278 47.350448 85.714818 -16.910801 230.269193 2231868 4913.289902
