#Data file /home/DATA/sbrieden/Patchy_dr12_mocks/prerecon/original/Patchy-Mocks-DR12CMASS-S-V6C-Portsmouth-mass_0042.dat
#Random file /home/DATA/sbrieden/Patchy_dr12_mocks/prerecon/original/Random-DR12CMASS-S-V6C-x20.dat
#Number of data elements used: 217221
#Number of random elements used: 4288842
#Effective number of data elements weighted by wcol: 217221.000000
#Effective number of random elements weighted by wcol: 4288842.000000
#Effective number of data elements weighted by wcol*wsys: 217221.000000
#Effective number of random elements weighted by wcol*wsys: 4288842.000000
#Effective redshift value from data 0.596235
#Effective redshift value from randoms 0.597190
#Size of the Box 3700.000000 Mpc/h
#Area of the survey used 2525.000000 deg^2
#Value of alpha: 0.050413
#Normalization using data file
#Normalization using density
#Normalization 4.118745
#Shot noise factor 1.000000
#Shot noise value 4885.336012
#Type of Computation: FFT
#Number of grid cells: 512
#Type of Mass Assigment: TSC
#Type of Yamamoto: GridCenter
#Number of Interlacing steps: 2
#Grid Correction: yes
#Value of Om=0.310000
#Quadrupole as L2
#Octopole as L3
#Hexadecapole as L2L2
#k-centerbin	 k-eff	 Monopole-Pshotnoise	 Dipole	 Quadrupole	 Octopole	 Hexadecapole	 number of modes	 Pshotnoise
0.005000 0.007485 57317.012806 -3747.717378 -17515.026708 -1780.063475 3678.477805 846 4885.336012
0.015000 0.016072 53700.697063 1266.886462 4811.378108 -4547.622827 -1716.474510 6012 4885.336012
0.025000 0.025646 56543.017764 953.372315 31817.034173 2107.837449 -10717.762111 16172 4885.336012
0.035000 0.035469 42200.152315 1221.838009 20899.550372 657.933543 -9750.325606 31764 4885.336012
0.045000 0.045378 35404.935359 139.400355 15924.812831 2043.921289 3198.643753 52164 4885.336012
0.055000 0.055280 31343.050502 577.575929 12760.944455 749.089913 6722.471499 77396 4885.336012
0.065000 0.065232 26787.304501 170.266354 7473.614088 -132.981872 -1436.951633 108936 4885.336012
0.075000 0.075229 24568.803614 391.789884 9294.648355 455.750568 240.823796 144980 4885.336012
0.085000 0.085193 20815.925397 221.845902 6718.620099 365.387164 822.593227 184854 4885.336012
0.095000 0.095166 17019.121080 351.287933 5888.154988 -50.356266 269.479897 232260 4885.336012
0.105000 0.105155 14626.083819 173.788567 4344.879722 209.556142 -1158.014799 282884 4885.336012
0.115000 0.115131 12640.344405 149.165946 4479.556008 166.401689 802.345661 339084 4885.336012
0.125000 0.125124 11797.554575 99.120506 4713.128053 9.158601 762.879312 401864 4885.336012
0.135000 0.135125 10903.061754 76.394392 4479.232346 220.717849 37.720273 468084 4885.336012
0.145000 0.145120 9655.863579 140.512075 3078.233433 147.533285 1036.019553 539940 4885.336012
0.155000 0.155118 8635.734290 96.387910 2579.910505 46.376109 664.033726 617324 4885.336012
0.165000 0.165105 7915.083388 94.056054 1976.512660 48.305698 52.628404 697452 4885.336012
0.175000 0.175088 7268.985690 68.857528 1910.122529 21.454374 52.353853 785846 4885.336012
0.185000 0.185089 6662.803032 84.496381 1779.315931 75.369830 152.012194 879528 4885.336012
0.195000 0.195093 6153.588807 63.792668 1393.446462 48.804395 150.369013 976596 4885.336012
0.205000 0.205084 5612.411522 71.727817 1238.618458 50.699944 46.632390 1077212 4885.336012
0.215000 0.215076 5231.836503 68.083095 1062.137778 -1.467318 221.844813 1186908 4885.336012
0.225000 0.225076 4850.206734 80.898417 1175.617294 -2.283068 320.393115 1299452 4885.336012
0.235000 0.235073 4488.376252 43.470379 863.272621 74.233875 68.632198 1417356 4885.336012
0.245000 0.245067 4210.985761 60.848248 609.627536 -4.714460 512.434815 1539600 4885.336012
0.255000 0.255064 4025.002154 48.341877 592.107520 53.106757 539.614327 1669820 4885.336012
0.265000 0.265061 3883.144421 49.831098 502.836155 -2.424711 425.056068 1801086 4885.336012
0.275000 0.275060 3637.831217 73.118380 300.389467 10.489488 243.833655 1942244 4885.336012
0.285000 0.285062 3385.253514 54.396078 147.455220 -8.105837 102.298573 2084796 4885.336012
0.295000 0.295057 3174.096874 55.369686 236.068427 23.347530 204.936633 2231868 4885.336012
