#Data file /home/DATA/sbrieden/Patchy_dr12_mocks/prerecon/original/Patchy-Mocks-DR12CMASS-S-V6C-Portsmouth-mass_0084.dat
#Random file /home/DATA/sbrieden/Patchy_dr12_mocks/prerecon/original/Random-DR12CMASS-S-V6C-x20.dat
#Number of data elements used: 216348
#Number of random elements used: 4288842
#Effective number of data elements weighted by wcol: 216348.000000
#Effective number of random elements weighted by wcol: 4288842.000000
#Effective number of data elements weighted by wcol*wsys: 216348.000000
#Effective number of random elements weighted by wcol*wsys: 4288842.000000
#Effective redshift value from data 0.597805
#Effective redshift value from randoms 0.597190
#Size of the Box 3700.000000 Mpc/h
#Area of the survey used 2525.000000 deg^2
#Value of alpha: 0.050413
#Normalization using data file
#Normalization using density
#Normalization 4.100084
#Shot noise factor 1.000000
#Shot noise value 4952.987914
#Type of Computation: FFT
#Number of grid cells: 512
#Type of Mass Assigment: TSC
#Type of Yamamoto: GridCenter
#Number of Interlacing steps: 2
#Grid Correction: yes
#Value of Om=0.310000
#Quadrupole as L2
#Octopole as L3
#Hexadecapole as L2L2
#k-centerbin	 k-eff	 Monopole-Pshotnoise	 Dipole	 Quadrupole	 Octopole	 Hexadecapole	 number of modes	 Pshotnoise
0.005000 0.007485 50200.484013 -138.084604 24376.712588 7288.368536 13148.298932 846 4952.987914
0.015000 0.016072 67301.187546 -732.053710 29918.776411 13086.564206 45670.026126 6012 4952.987914
0.025000 0.025646 63672.024919 585.762392 5913.267807 -1857.684636 5410.061136 16172 4952.987914
0.035000 0.035469 51924.610602 1336.419216 15034.317270 -155.579064 -6692.442583 31764 4952.987914
0.045000 0.045378 39578.588658 752.319487 18399.722546 2147.996187 6018.247017 52164 4952.987914
0.055000 0.055280 32637.247069 495.070712 9165.276623 173.407697 3569.344488 77396 4952.987914
0.065000 0.065232 27333.683395 407.594052 10565.063496 375.923382 257.930764 108936 4952.987914
0.075000 0.075229 23981.434917 205.714064 7835.324700 174.470436 -2947.268045 144980 4952.987914
0.085000 0.085193 20370.612644 467.975632 7947.850520 508.098089 2561.424539 184854 4952.987914
0.095000 0.095166 16638.167872 214.625118 6387.549563 274.529755 3415.455232 232260 4952.987914
0.105000 0.105155 14644.533486 105.506962 4407.154019 216.632302 663.545365 282884 4952.987914
0.115000 0.115131 13193.815837 140.850466 4128.682136 34.670658 1545.690873 339084 4952.987914
0.125000 0.125124 12099.296722 182.093857 4386.046486 55.134026 940.096485 401864 4952.987914
0.135000 0.135125 10766.349935 77.790862 3459.719535 215.498869 44.735285 468084 4952.987914
0.145000 0.145120 9509.931169 127.003610 3205.120414 34.747846 1065.097018 539940 4952.987914
0.155000 0.155118 8650.798140 102.578494 2422.619128 78.172715 608.016605 617324 4952.987914
0.165000 0.165105 7743.666963 58.873266 2128.300016 100.735559 405.794261 697452 4952.987914
0.175000 0.175088 7273.488609 105.974923 2307.689785 55.709384 1100.297288 785846 4952.987914
0.185000 0.185089 6544.656457 79.760872 1626.324636 62.373993 833.908303 879528 4952.987914
0.195000 0.195093 6179.043666 45.773600 1536.221246 6.703362 337.870778 976596 4952.987914
0.205000 0.205084 5799.081280 87.748919 1420.203982 38.093896 490.150765 1077212 4952.987914
0.215000 0.215076 5330.695298 65.879719 870.285450 -6.647579 -106.881779 1186908 4952.987914
0.225000 0.225076 4900.678138 71.534311 698.264663 33.235671 -47.834325 1299452 4952.987914
0.235000 0.235073 4490.831304 47.256933 795.722927 29.143996 5.247327 1417356 4952.987914
0.245000 0.245067 4355.291456 71.612464 705.946065 -5.872860 119.817094 1539600 4952.987914
0.255000 0.255064 3994.181716 56.383952 621.346563 -8.319322 145.121889 1669820 4952.987914
0.265000 0.265061 3896.108573 49.587995 575.779652 86.325232 347.871476 1801086 4952.987914
0.275000 0.275060 3525.361122 58.689444 88.098711 21.467433 449.013473 1942244 4952.987914
0.285000 0.285062 3316.659467 60.318884 100.540196 -41.059676 179.597362 2084796 4952.987914
0.295000 0.295057 3275.096163 45.656123 116.376994 31.266274 258.992135 2231868 4952.987914
