#Data file /home/DATA/sbrieden/Patchy_dr12_mocks/prerecon/original/Patchy-Mocks-DR12LOWZ-N-V5C-Portsmouth-mass_0011.dat
#Random file /home/DATA/sbrieden/Patchy_dr12_mocks/prerecon/original/Random-DR12LOWZ-N-V5C-x20.dat
#Number of data elements used: 234170
#Number of random elements used: 4685323
#Effective number of data elements weighted by wcol: 234170.000000
#Effective number of random elements weighted by wcol: 4685323.000000
#Effective number of data elements weighted by wcol*wsys: 234170.000000
#Effective number of random elements weighted by wcol*wsys: 4685323.000000
#Effective redshift value from data 0.329514
#Effective redshift value from randoms 0.330058
#Size of the Box 2500.000000 Mpc/h
#Area of the survey used 5826.000000 deg^2
#Value of alpha: 0.049946
#Normalization using data file
#Normalization using density
#Normalization 4.339870
#Shot noise factor 1.000000
#Shot noise value 3651.978742
#Type of Computation: FFT
#Number of grid cells: 512
#Type of Mass Assigment: TSC
#Type of Yamamoto: GridCenter
#Number of Interlacing steps: 2
#Grid Correction: yes
#Value of Om=0.310000
#Quadrupole as L2
#Octopole as L3
#Hexadecapole as L2L2
#k-centerbin	 k-eff	 Monopole-Pshotnoise	 Dipole	 Quadrupole	 Octopole	 Hexadecapole	 number of modes	 Pshotnoise
0.005000 0.007385 36247.368145 950.102684 36067.225159 18275.197749 -8586.127485 250 3651.978742
0.015000 0.016012 58882.830543 870.615808 4767.675572 -10762.808861 -16243.693248 1852 3651.978742
0.025000 0.025646 63087.663196 -1111.414975 23251.952637 2267.728438 -13765.447428 5020 3651.978742
0.035000 0.035469 54918.796761 3173.771911 32157.057642 5587.720436 15158.791694 9756 3651.978742
0.045000 0.045368 44469.052328 1302.536147 16417.625697 2755.120808 6963.299006 16108 3651.978742
0.055000 0.055314 34714.584560 701.337591 16889.676054 1744.087887 3972.220213 24064 3651.978742
0.065000 0.065258 31048.980335 344.759381 9668.758086 1536.643623 1768.330239 33396 3651.978742
0.075000 0.075209 26257.749355 732.261676 10935.111215 -510.240150 4509.000473 44596 3651.978742
0.085000 0.085175 22672.183391 659.738073 8132.380323 514.562945 -446.545676 57124 3651.978742
0.095000 0.095157 18400.588682 387.563599 7794.791741 905.214466 2561.549255 71620 3651.978742
0.105000 0.105162 16870.680475 238.555150 5572.366192 502.665427 3038.784885 87552 3651.978742
0.115000 0.115148 14217.080104 250.790461 5201.217703 170.376842 1146.280365 104524 3651.978742
0.125000 0.125146 12965.507975 179.555924 4181.038094 231.710820 1089.602838 124228 3651.978742
0.135000 0.135146 11815.736904 191.773795 3772.190245 113.716192 1618.763557 144204 3651.978742
0.145000 0.145132 10462.826834 152.367827 2873.037655 96.666074 44.295878 166492 3651.978742
0.155000 0.155114 9266.739791 202.943754 2523.218891 153.357414 150.891969 189964 3651.978742
0.165000 0.165102 8698.724080 53.515946 2370.369359 83.836886 398.410089 215640 3651.978742
0.175000 0.175105 7918.214134 132.533404 2195.162864 191.785163 745.320836 242836 3651.978742
0.185000 0.185097 6991.262564 117.124954 1824.345713 37.487307 899.722265 270556 3651.978742
0.195000 0.195085 6490.048787 83.189888 1639.702406 72.277185 1000.191167 301084 3651.978742
0.205000 0.205080 6017.814117 83.199234 1368.705938 10.061713 455.545709 332628 3651.978742
0.215000 0.215092 5537.431167 101.876303 1349.873611 6.680987 340.503910 367216 3651.978742
0.225000 0.225099 5254.628171 34.081244 1019.339573 119.979341 77.782561 400444 3651.978742
0.235000 0.235081 4847.206048 86.080126 573.816089 15.731107 158.073929 436500 3651.978742
0.245000 0.245077 4538.587502 43.821633 768.562647 30.729932 175.962010 475900 3651.978742
0.255000 0.255082 4348.905398 74.885393 649.602571 -35.341845 130.297595 514900 3651.978742
0.265000 0.265074 4114.816906 56.370217 599.726711 74.590959 72.241762 555408 3651.978742
0.275000 0.275066 3730.337854 56.116780 406.472874 8.778821 134.188344 598684 3651.978742
0.285000 0.285066 3521.140379 59.570144 323.942777 21.046109 149.355357 643228 3651.978742
0.295000 0.295058 3315.685934 41.018451 192.918648 34.257894 144.977834 688036 3651.978742
