#Data file /home/DATA/sbrieden/Patchy_dr12_mocks/prerecon/original/Patchy-Mocks-DR12LOWZ-N-V5C-Portsmouth-mass_0041.dat
#Random file /home/DATA/sbrieden/Patchy_dr12_mocks/prerecon/original/Random-DR12LOWZ-N-V5C-x20.dat
#Number of data elements used: 236231
#Number of random elements used: 4685323
#Effective number of data elements weighted by wcol: 236231.000000
#Effective number of random elements weighted by wcol: 4685323.000000
#Effective number of data elements weighted by wcol*wsys: 236231.000000
#Effective number of random elements weighted by wcol*wsys: 4685323.000000
#Effective redshift value from data 0.330472
#Effective redshift value from randoms 0.330058
#Size of the Box 2500.000000 Mpc/h
#Area of the survey used 5826.000000 deg^2
#Value of alpha: 0.050416
#Normalization using data file
#Normalization using density
#Normalization 4.379303
#Shot noise factor 1.000000
#Shot noise value 3657.971957
#Type of Computation: FFT
#Number of grid cells: 512
#Type of Mass Assigment: TSC
#Type of Yamamoto: GridCenter
#Number of Interlacing steps: 2
#Grid Correction: yes
#Value of Om=0.310000
#Quadrupole as L2
#Octopole as L3
#Hexadecapole as L2L2
#k-centerbin	 k-eff	 Monopole-Pshotnoise	 Dipole	 Quadrupole	 Octopole	 Hexadecapole	 number of modes	 Pshotnoise
0.005000 0.007385 61084.432405 -568.510799 -8674.014669 -4126.291436 -10683.817516 250 3657.971957
0.015000 0.016012 65098.269190 -752.744017 12240.814751 -1533.561323 -2368.836379 1852 3657.971957
0.025000 0.025646 48525.171397 1100.739209 5738.931769 3024.873637 1004.902067 5020 3657.971957
0.035000 0.035469 49113.215693 1159.189859 5659.682314 -493.617030 6943.200751 9756 3657.971957
0.045000 0.045368 43515.268336 1189.989655 18534.160862 567.189768 480.158992 16108 3657.971957
0.055000 0.055314 32360.513627 1098.919090 10038.908733 118.092982 -4200.889433 24064 3657.971957
0.065000 0.065258 29923.228961 275.019939 13634.079508 739.530506 -3629.884023 33396 3657.971957
0.075000 0.075209 25803.593648 710.874651 10098.539589 792.282566 1700.933759 44596 3657.971957
0.085000 0.085175 21241.376332 573.330781 7456.844447 921.116839 1227.583062 57124 3657.971957
0.095000 0.095157 18339.385892 259.896649 6245.660830 433.768423 347.986928 71620 3657.971957
0.105000 0.105162 15416.769912 388.646080 6578.948465 53.976317 1189.370304 87552 3657.971957
0.115000 0.115148 14123.190283 139.982382 5108.460051 156.634411 -1581.422375 104524 3657.971957
0.125000 0.125146 12440.958631 243.195506 4524.018207 466.413805 -73.295559 124228 3657.971957
0.135000 0.135146 11206.696085 150.293587 3340.775663 -35.789119 387.173611 144204 3657.971957
0.145000 0.145132 10224.297344 145.084335 3555.883262 329.549253 -551.324335 166492 3657.971957
0.155000 0.155114 9231.701942 134.519096 2794.977320 52.503519 158.633307 189964 3657.971957
0.165000 0.165102 8333.332591 132.129996 1829.029802 82.970897 -110.558065 215640 3657.971957
0.175000 0.175105 7605.586230 125.492588 2508.383437 73.507667 708.884807 242836 3657.971957
0.185000 0.185097 6886.303910 68.337884 1937.506772 151.572401 -48.434217 270556 3657.971957
0.195000 0.195085 6528.922805 99.432868 1598.920583 25.964616 247.532569 301084 3657.971957
0.205000 0.205080 5932.940014 80.218602 969.396096 58.774837 247.671220 332628 3657.971957
0.215000 0.215092 5560.800715 88.967717 1241.310292 -23.069887 341.355771 367216 3657.971957
0.225000 0.225099 5127.421714 82.626104 1420.677639 40.701244 453.580842 400444 3657.971957
0.235000 0.235081 4740.261883 46.122206 932.946129 105.389402 73.958908 436500 3657.971957
0.245000 0.245077 4569.322430 78.872563 814.024740 -27.000048 119.481506 475900 3657.971957
0.255000 0.255082 4139.561757 60.152247 704.631086 47.401232 218.166251 514900 3657.971957
0.265000 0.265074 3844.827748 57.177099 589.630460 24.803472 129.451737 555408 3657.971957
0.275000 0.275066 3568.477770 45.905443 503.770289 47.989688 294.060093 598684 3657.971957
0.285000 0.285066 3435.772696 44.052201 353.928978 51.220548 219.565048 643228 3657.971957
0.295000 0.295058 3218.700316 47.273821 164.744437 33.582744 398.019292 688036 3657.971957
