#Data file /home/DATA/sbrieden/Patchy_dr12_mocks/prerecon/original/Patchy-Mocks-DR12LOWZ-N-V5C-Portsmouth-mass_0066.dat
#Random file /home/DATA/sbrieden/Patchy_dr12_mocks/prerecon/original/Random-DR12LOWZ-N-V5C-x20.dat
#Number of data elements used: 233254
#Number of random elements used: 4685323
#Effective number of data elements weighted by wcol: 233254.000000
#Effective number of random elements weighted by wcol: 4685323.000000
#Effective number of data elements weighted by wcol*wsys: 233254.000000
#Effective number of random elements weighted by wcol*wsys: 4685323.000000
#Effective redshift value from data 0.330126
#Effective redshift value from randoms 0.330058
#Size of the Box 2500.000000 Mpc/h
#Area of the survey used 5826.000000 deg^2
#Value of alpha: 0.049782
#Normalization using data file
#Normalization using density
#Normalization 4.324400
#Shot noise factor 1.000000
#Shot noise value 3655.158132
#Type of Computation: FFT
#Number of grid cells: 512
#Type of Mass Assigment: TSC
#Type of Yamamoto: GridCenter
#Number of Interlacing steps: 2
#Grid Correction: yes
#Value of Om=0.310000
#Quadrupole as L2
#Octopole as L3
#Hexadecapole as L2L2
#k-centerbin	 k-eff	 Monopole-Pshotnoise	 Dipole	 Quadrupole	 Octopole	 Hexadecapole	 number of modes	 Pshotnoise
0.005000 0.007385 92787.363672 14802.664486 34848.061046 -13584.510655 -8161.525733 250 3655.158132
0.015000 0.016012 82990.057138 3949.402657 36234.099809 1904.583243 -4883.082884 1852 3655.158132
0.025000 0.025646 72238.914568 2354.732427 22106.200365 -2838.524607 -55419.515445 5020 3655.158132
0.035000 0.035469 48096.104305 1891.679128 13152.024978 530.734202 -18593.755268 9756 3655.158132
0.045000 0.045368 41960.006139 301.891245 15302.464342 1802.646901 -2003.900195 16108 3655.158132
0.055000 0.055314 36746.688882 1469.611271 15891.335219 1979.632694 955.255039 24064 3655.158132
0.065000 0.065258 30556.880686 293.505164 10965.143214 220.252158 6464.547051 33396 3655.158132
0.075000 0.075209 27464.507334 828.825258 10631.058034 1041.432809 1866.120455 44596 3655.158132
0.085000 0.085175 21920.288337 612.451606 8205.683523 782.968327 14.238468 57124 3655.158132
0.095000 0.095157 17746.255243 215.594726 6364.974045 393.292309 119.870748 71620 3655.158132
0.105000 0.105162 15360.273964 360.790079 5183.229527 235.653450 -249.505511 87552 3655.158132
0.115000 0.115148 13411.888044 240.411361 3499.454871 44.554447 557.910417 104524 3655.158132
0.125000 0.125146 12784.473716 160.793187 3381.051091 181.462565 -156.060965 124228 3655.158132
0.135000 0.135146 11349.601579 90.639469 3137.254063 149.797025 664.380491 144204 3655.158132
0.145000 0.145132 10482.421756 286.931705 3239.489240 -85.119003 179.508686 166492 3655.158132
0.155000 0.155114 9053.589573 110.185770 2750.751681 395.274244 617.520343 189964 3655.158132
0.165000 0.165102 8448.047021 136.002730 2207.609090 72.206365 619.858123 215640 3655.158132
0.175000 0.175105 7588.850195 109.365757 1961.285070 15.986604 1204.050232 242836 3655.158132
0.185000 0.185097 7191.660735 40.089364 1974.023440 87.117937 125.560622 270556 3655.158132
0.195000 0.195085 6837.682657 113.050251 1296.562603 127.155546 485.176151 301084 3655.158132
0.205000 0.205080 6112.068503 82.630005 1102.363732 17.608046 510.623684 332628 3655.158132
0.215000 0.215092 5625.759696 75.694995 836.232966 -10.333671 267.987889 367216 3655.158132
0.225000 0.225099 5248.471538 81.150922 1323.806607 17.467532 299.710284 400444 3655.158132
0.235000 0.235081 4897.902984 61.921202 701.059261 104.611688 7.329077 436500 3655.158132
0.245000 0.245077 4441.890228 91.691871 621.714040 16.732187 179.224383 475900 3655.158132
0.255000 0.255082 4121.231143 42.392198 432.690058 38.045731 57.832280 514900 3655.158132
0.265000 0.265074 3973.704065 28.429642 327.821283 47.563993 272.516951 555408 3655.158132
0.275000 0.275066 3770.607524 74.132510 261.497763 -39.356657 476.966835 598684 3655.158132
0.285000 0.285066 3477.428562 60.568672 356.503058 24.700958 311.768183 643228 3655.158132
0.295000 0.295058 3320.168561 55.228606 143.732260 33.451930 75.806174 688036 3655.158132
