#Data file /home/DATA/sbrieden/Patchy_dr12_mocks/prerecon/original/Patchy-Mocks-DR12LOWZ-N-V5C-Portsmouth-mass_0023.dat
#Random file /home/DATA/sbrieden/Patchy_dr12_mocks/prerecon/original/Random-DR12LOWZ-N-V5C-x20.dat
#Number of data elements used: 232039
#Number of random elements used: 4685323
#Effective number of data elements weighted by wcol: 232039.000000
#Effective number of random elements weighted by wcol: 4685323.000000
#Effective number of data elements weighted by wcol*wsys: 232039.000000
#Effective number of random elements weighted by wcol*wsys: 4685323.000000
#Effective redshift value from data 0.329964
#Effective redshift value from randoms 0.330058
#Size of the Box 2500.000000 Mpc/h
#Area of the survey used 5826.000000 deg^2
#Value of alpha: 0.049550
#Normalization using data file
#Normalization using density
#Normalization 4.303843
#Shot noise factor 1.000000
#Shot noise value 3655.724744
#Type of Computation: FFT
#Number of grid cells: 512
#Type of Mass Assigment: TSC
#Type of Yamamoto: GridCenter
#Number of Interlacing steps: 2
#Grid Correction: yes
#Value of Om=0.310000
#Quadrupole as L2
#Octopole as L3
#Hexadecapole as L2L2
#k-centerbin	 k-eff	 Monopole-Pshotnoise	 Dipole	 Quadrupole	 Octopole	 Hexadecapole	 number of modes	 Pshotnoise
0.005000 0.007385 49350.940549 -3539.351486 41039.348616 7961.994806 -9490.344725 250 3655.724744
0.015000 0.016012 77529.948287 3045.397809 64621.807265 10959.059111 11773.870808 1852 3655.724744
0.025000 0.025646 58872.399579 2604.157979 23436.503822 3856.970652 -24970.038532 5020 3655.724744
0.035000 0.035469 47547.439789 1016.560596 15890.295827 2537.734123 -6064.830960 9756 3655.724744
0.045000 0.045368 39528.542375 1118.552018 11208.364054 847.480835 -4304.035080 16108 3655.724744
0.055000 0.055314 33368.172523 190.371539 10928.292186 1116.490702 2263.900429 24064 3655.724744
0.065000 0.065258 29938.850063 964.769242 9137.549473 113.821332 -2887.383098 33396 3655.724744
0.075000 0.075209 25399.095456 731.687419 9217.781275 467.799438 -662.251953 44596 3655.724744
0.085000 0.085175 20819.863421 343.124764 4697.458335 731.810354 -330.194449 57124 3655.724744
0.095000 0.095157 17269.510555 364.539607 5368.346074 -111.310743 1049.462608 71620 3655.724744
0.105000 0.105162 15898.477016 282.842990 3609.595294 758.075886 -1254.772934 87552 3655.724744
0.115000 0.115148 13319.087412 235.307080 3395.434316 -401.066408 215.450261 104524 3655.724744
0.125000 0.125146 12361.984523 135.342219 4142.887213 375.300958 538.311902 124228 3655.724744
0.135000 0.135146 11448.253147 176.496312 3136.105222 137.489685 -372.756884 144204 3655.724744
0.145000 0.145132 10257.248533 148.546569 3194.339261 135.064117 290.468102 166492 3655.724744
0.155000 0.155114 9132.455979 160.718091 2638.146372 34.405854 415.450900 189964 3655.724744
0.165000 0.165102 8305.229894 131.312953 2222.565886 82.815392 281.966217 215640 3655.724744
0.175000 0.175105 7638.119415 67.314149 1900.938300 214.361412 7.163605 242836 3655.724744
0.185000 0.185097 7129.664711 94.210764 1424.729958 24.561956 394.456515 270556 3655.724744
0.195000 0.195085 6585.995301 111.253515 1450.019139 -4.951659 295.296067 301084 3655.724744
0.205000 0.205080 5946.476861 86.105252 1220.099094 115.803431 54.855162 332628 3655.724744
0.215000 0.215092 5545.257088 82.230383 1079.774417 -40.904992 140.208925 367216 3655.724744
0.225000 0.225099 5214.787022 79.500048 1119.079019 88.696230 394.358360 400444 3655.724744
0.235000 0.235081 4694.589564 61.070486 906.935447 9.819152 336.013346 436500 3655.724744
0.245000 0.245077 4481.339757 45.076869 685.040181 81.164312 217.984528 475900 3655.724744
0.255000 0.255082 4229.098675 53.079864 546.506487 -6.795680 89.514943 514900 3655.724744
0.265000 0.265074 3987.712532 65.103667 341.723436 65.870297 248.906273 555408 3655.724744
0.275000 0.275066 3771.720139 42.971054 341.787985 11.645692 87.437459 598684 3655.724744
0.285000 0.285066 3485.102537 58.963863 147.738936 9.100196 341.374173 643228 3655.724744
0.295000 0.295058 3309.828904 52.960612 23.111476 9.368356 39.888823 688036 3655.724744
