#Data file /home/DATA/sbrieden/Patchy_dr12_mocks/prerecon/original/Patchy-Mocks-DR12CMASS-S-V6C-Portsmouth-mass_0010.dat
#Random file /home/DATA/sbrieden/Patchy_dr12_mocks/prerecon/original/Random-DR12CMASS-S-V6C-x20.dat
#Number of data elements used: 214546
#Number of random elements used: 4288842
#Effective number of data elements weighted by wcol: 214546.000000
#Effective number of random elements weighted by wcol: 4288842.000000
#Effective number of data elements weighted by wcol*wsys: 214546.000000
#Effective number of random elements weighted by wcol*wsys: 4288842.000000
#Effective redshift value from data 0.597721
#Effective redshift value from randoms 0.597190
#Size of the Box 3700.000000 Mpc/h
#Area of the survey used 2525.000000 deg^2
#Value of alpha: 0.050268
#Normalization using data file
#Normalization using density
#Normalization 4.085120
#Shot noise factor 1.000000
#Shot noise value 4963.887014
#Type of Computation: FFT
#Number of grid cells: 512
#Type of Mass Assigment: TSC
#Type of Yamamoto: GridCenter
#Number of Interlacing steps: 2
#Grid Correction: yes
#Value of Om=0.310000
#Quadrupole as L2
#Octopole as L3
#Hexadecapole as L2L2
#k-centerbin	 k-eff	 Monopole-Pshotnoise	 Dipole	 Quadrupole	 Octopole	 Hexadecapole	 number of modes	 Pshotnoise
0.005000 0.007485 36000.674512 -8901.937411 -746.875939 1350.948418 5776.973896 846 4963.887014
0.015000 0.016072 69257.916355 352.129856 6015.631972 -1588.857753 -8058.325240 6012 4963.887014
0.025000 0.025646 54535.384518 1059.938983 -7067.490388 -1586.345702 -15159.452626 16172 4963.887014
0.035000 0.035469 42188.851661 1214.298593 11331.705740 -1457.018243 -6373.771696 31764 4963.887014
0.045000 0.045378 36041.432254 455.564319 8203.648792 1801.797015 -5644.697594 52164 4963.887014
0.055000 0.055280 30717.900581 181.042520 8478.673158 640.387824 11747.439824 77396 4963.887014
0.065000 0.065232 27210.366595 499.026139 10492.734689 53.470410 7195.588318 108936 4963.887014
0.075000 0.075229 23680.688449 303.355890 7308.815353 -3.583397 -2248.193522 144980 4963.887014
0.085000 0.085193 19820.528975 324.420165 8603.551988 422.727136 629.394655 184854 4963.887014
0.095000 0.095166 16250.017491 170.050949 6649.176808 372.651046 1562.838664 232260 4963.887014
0.105000 0.105155 14673.564988 200.039393 6472.786018 158.727294 1438.799433 282884 4963.887014
0.115000 0.115131 12978.394939 102.166774 4175.434357 329.236056 1354.134949 339084 4963.887014
0.125000 0.125124 11942.997792 128.202047 3349.818630 -26.326810 744.975600 401864 4963.887014
0.135000 0.135125 10493.227618 142.762988 3420.815244 193.389943 1046.221588 468084 4963.887014
0.145000 0.145120 9293.992079 96.532208 2599.380864 -11.119394 1145.051087 539940 4963.887014
0.155000 0.155118 8577.056418 119.192826 2487.162253 7.005049 211.107691 617324 4963.887014
0.165000 0.165105 7651.884290 60.607927 2487.602464 127.665785 99.962819 697452 4963.887014
0.175000 0.175088 7128.512814 87.246138 2326.276947 16.756689 541.986538 785846 4963.887014
0.185000 0.185089 6759.256869 76.965095 1603.221820 58.939638 339.810054 879528 4963.887014
0.195000 0.195093 6114.713115 57.820896 1262.658675 94.254446 420.866795 976596 4963.887014
0.205000 0.205084 5661.974765 85.226267 1169.442955 1.075873 683.449913 1077212 4963.887014
0.215000 0.215076 5206.500481 65.071715 1327.113683 30.234805 251.266935 1186908 4963.887014
0.225000 0.225076 4790.604056 53.469520 796.045000 23.377837 385.923001 1299452 4963.887014
0.235000 0.235073 4554.210246 63.701463 741.773425 -0.266323 -16.325413 1417356 4963.887014
0.245000 0.245067 4304.443711 51.735703 642.424188 32.142452 92.439660 1539600 4963.887014
0.255000 0.255064 4059.513116 67.832409 482.180149 -11.798373 147.324004 1669820 4963.887014
0.265000 0.265061 3786.031506 63.322156 624.498494 21.052402 -49.842400 1801086 4963.887014
0.275000 0.275060 3570.430537 44.906493 351.968589 27.422197 226.158303 1942244 4963.887014
0.285000 0.285062 3346.719377 62.160773 303.156587 16.537222 201.481225 2084796 4963.887014
0.295000 0.295057 3260.286668 46.319702 166.039023 8.650233 255.816829 2231868 4963.887014
