#Data file /home/DATA/sbrieden/Patchy_dr12_mocks/prerecon/original/Patchy-Mocks-DR12CMASS-N-V6C-Portsmouth-mass_0074.dat
#Random file /home/DATA/sbrieden/Patchy_dr12_mocks/prerecon/original/Random-DR12CMASS-N-V6C-x20.dat
#Number of data elements used: 588938
#Number of random elements used: 11797448
#Effective number of data elements weighted by wcol: 588938.000000
#Effective number of random elements weighted by wcol: 11797448.000000
#Effective number of data elements weighted by wcol*wsys: 588938.000000
#Effective number of random elements weighted by wcol*wsys: 11797448.000000
#Effective redshift value from data 0.598109
#Effective redshift value from randoms 0.597992
#Size of the Box 3700.000000 Mpc/h
#Area of the survey used 6851.000000 deg^2
#Value of alpha: 0.049934
#Normalization using data file
#Normalization using density
#Normalization 11.074226
#Shot noise factor 1.000000
#Shot noise value 4939.345064
#Type of Computation: FFT
#Number of grid cells: 512
#Type of Mass Assigment: TSC
#Type of Yamamoto: GridCenter
#Number of Interlacing steps: 2
#Grid Correction: yes
#Value of Om=0.310000
#Quadrupole as L2
#Octopole as L3
#Hexadecapole as L2L2
#k-centerbin	 k-eff	 Monopole-Pshotnoise	 Dipole	 Quadrupole	 Octopole	 Hexadecapole	 number of modes	 Pshotnoise
0.005000 0.007485 65044.294064 -5093.070638 -12482.566853 -863.356873 1207.882421 846 4939.345064
0.015000 0.016072 69406.369420 1618.752037 1392.113515 1922.655537 26304.850135 6012 4939.345064
0.025000 0.025646 54716.346313 1084.652418 19266.487109 409.082791 9121.826336 16172 4939.345064
0.035000 0.035469 44268.964062 974.011846 15298.757363 209.038872 -5127.407475 31764 4939.345064
0.045000 0.045378 36649.079609 520.873799 11448.701732 1313.918008 -4832.508765 52164 4939.345064
0.055000 0.055280 30952.175471 382.365511 7992.879838 331.794310 -82.206515 77396 4939.345064
0.065000 0.065232 26677.615777 215.619121 8116.649972 371.193028 1041.630449 108936 4939.345064
0.075000 0.075229 24141.295802 339.283594 6409.513803 145.506638 970.543330 144980 4939.345064
0.085000 0.085193 20011.007584 344.591022 7516.385602 215.423988 2199.260258 184854 4939.345064
0.095000 0.095166 17198.642720 253.983758 6293.391557 157.974498 -52.352673 232260 4939.345064
0.105000 0.105155 14453.402783 145.044296 5493.295339 350.737797 1003.478319 282884 4939.345064
0.115000 0.115131 13046.644232 130.403964 4318.520504 116.975187 568.465643 339084 4939.345064
0.125000 0.125124 11633.915772 111.914078 4125.550638 111.925392 680.600765 401864 4939.345064
0.135000 0.135125 10823.138609 127.855517 2824.754730 65.899709 622.348001 468084 4939.345064
0.145000 0.145120 9579.541581 114.666526 2811.724885 73.246315 675.221840 539940 4939.345064
0.155000 0.155118 8587.498578 110.562070 2531.870022 10.303691 -137.016215 617324 4939.345064
0.165000 0.165105 7747.247916 87.135640 2011.152191 113.765588 254.801984 697452 4939.345064
0.175000 0.175088 7255.004352 63.283723 1901.362218 50.070493 921.527051 785846 4939.345064
0.185000 0.185089 6722.119786 76.351076 1550.080090 54.500079 436.910493 879528 4939.345064
0.195000 0.195093 6152.107809 79.166787 1493.131954 -4.267714 420.969789 976596 4939.345064
0.205000 0.205084 5781.053841 61.365030 1361.506196 34.200943 224.059602 1077212 4939.345064
0.215000 0.215076 5328.701782 77.762585 1127.985925 26.694141 129.743409 1186908 4939.345064
0.225000 0.225076 4891.198993 62.609432 973.349764 43.758261 60.605421 1299452 4939.345064
0.235000 0.235073 4614.498277 51.608917 672.934513 23.662430 206.221512 1417356 4939.345064
0.245000 0.245067 4349.242943 48.691856 438.575696 33.203587 50.206314 1539600 4939.345064
0.255000 0.255064 4092.106326 67.609675 458.838712 11.419125 179.983742 1669820 4939.345064
0.265000 0.265061 3810.587375 61.074011 406.291863 -9.365554 129.218908 1801086 4939.345064
0.275000 0.275060 3612.267460 53.049140 388.801371 14.875156 -97.690560 1942244 4939.345064
0.285000 0.285062 3385.386860 56.843843 248.224070 27.167209 26.704504 2084796 4939.345064
0.295000 0.295057 3176.715172 57.652338 148.095426 11.396817 86.563434 2231868 4939.345064
