#Data file /home/DATA/sbrieden/Patchy_dr12_mocks/prerecon/original/Patchy-Mocks-DR12CMASS-S-V6C-Portsmouth-mass_0043.dat
#Random file /home/DATA/sbrieden/Patchy_dr12_mocks/prerecon/original/Random-DR12CMASS-S-V6C-x20.dat
#Number of data elements used: 212171
#Number of random elements used: 4288842
#Effective number of data elements weighted by wcol: 212171.000000
#Effective number of random elements weighted by wcol: 4288842.000000
#Effective number of data elements weighted by wcol*wsys: 212171.000000
#Effective number of random elements weighted by wcol*wsys: 4288842.000000
#Effective redshift value from data 0.598249
#Effective redshift value from randoms 0.597190
#Size of the Box 3700.000000 Mpc/h
#Area of the survey used 2525.000000 deg^2
#Value of alpha: 0.049668
#Normalization using data file
#Normalization using density
#Normalization 4.035948
#Shot noise factor 1.000000
#Shot noise value 4962.763929
#Type of Computation: FFT
#Number of grid cells: 512
#Type of Mass Assigment: TSC
#Type of Yamamoto: GridCenter
#Number of Interlacing steps: 2
#Grid Correction: yes
#Value of Om=0.310000
#Quadrupole as L2
#Octopole as L3
#Hexadecapole as L2L2
#k-centerbin	 k-eff	 Monopole-Pshotnoise	 Dipole	 Quadrupole	 Octopole	 Hexadecapole	 number of modes	 Pshotnoise
0.005000 0.007485 45832.784742 1217.587416 50601.461226 28032.146905 32820.407482 846 4962.763929
0.015000 0.016072 68305.465277 821.457884 -19302.470575 -8846.878889 -8801.214346 6012 4962.763929
0.025000 0.025646 58228.110333 911.114848 18699.808918 341.467329 -25739.424525 16172 4962.763929
0.035000 0.035469 45699.738187 1161.989236 16452.121833 195.466511 -7624.307332 31764 4962.763929
0.045000 0.045378 36778.210785 317.835682 18341.201792 1246.101459 -610.139848 52164 4962.763929
0.055000 0.055280 31113.620512 627.570790 9418.542986 716.757198 1314.827816 77396 4962.763929
0.065000 0.065232 27071.908668 301.215508 9294.905851 178.252265 384.312356 108936 4962.763929
0.075000 0.075229 23037.754092 246.600729 8737.619434 592.083609 -1518.564402 144980 4962.763929
0.085000 0.085193 19600.422244 305.548043 6089.971774 81.595209 2027.379881 184854 4962.763929
0.095000 0.095166 16320.586294 321.479901 4722.992495 207.744203 -1237.674993 232260 4962.763929
0.105000 0.105155 14054.240665 101.319024 4720.120744 138.398325 498.398511 282884 4962.763929
0.115000 0.115131 12590.941088 94.190781 3220.180448 165.592864 911.881970 339084 4962.763929
0.125000 0.125124 11710.026440 141.737891 2895.666586 34.814857 385.338875 401864 4962.763929
0.135000 0.135125 10563.145360 128.919123 2502.761858 -51.712879 323.749578 468084 4962.763929
0.145000 0.145120 9739.274069 80.490721 2611.885531 235.869617 -199.545202 539940 4962.763929
0.155000 0.155118 8553.236551 106.625238 1995.945905 34.846372 104.426731 617324 4962.763929
0.165000 0.165105 7597.152276 120.177739 1959.090400 -17.924068 542.349534 697452 4962.763929
0.175000 0.175088 7137.698658 44.964802 1557.328014 91.310605 146.317750 785846 4962.763929
0.185000 0.185089 6532.463625 73.287894 1648.989640 21.585782 119.216415 879528 4962.763929
0.195000 0.195093 6152.529810 101.777150 1542.909630 25.554710 294.912023 976596 4962.763929
0.205000 0.205084 5644.183299 33.769338 1368.008494 16.488869 516.070929 1077212 4962.763929
0.215000 0.215076 5342.377493 74.969123 1206.323987 37.747483 -63.809896 1186908 4962.763929
0.225000 0.225076 4893.682625 50.221434 936.059746 70.759479 -68.363339 1299452 4962.763929
0.235000 0.235073 4567.114133 92.234072 862.670625 -16.121366 221.410053 1417356 4962.763929
0.245000 0.245067 4185.116054 44.123656 681.318573 5.375566 445.422620 1539600 4962.763929
0.255000 0.255064 3981.325345 58.541551 466.377078 37.108744 333.366616 1669820 4962.763929
0.265000 0.265061 3776.638132 50.206392 378.518457 21.588308 -24.956106 1801086 4962.763929
0.275000 0.275060 3526.129482 78.001068 306.787087 -19.891634 313.759787 1942244 4962.763929
0.285000 0.285062 3180.079236 43.812834 218.695688 24.052488 269.357706 2084796 4962.763929
0.295000 0.295057 3165.662046 52.468761 90.429872 6.570652 168.010874 2231868 4962.763929
