#Data file /home/DATA/sbrieden/Patchy_dr12_mocks/prerecon/original/Patchy-Mocks-DR12LOWZ-N-V5C-Portsmouth-mass_0052.dat
#Random file /home/DATA/sbrieden/Patchy_dr12_mocks/prerecon/original/Random-DR12LOWZ-N-V5C-x20.dat
#Number of data elements used: 234315
#Number of random elements used: 4685323
#Effective number of data elements weighted by wcol: 234315.000000
#Effective number of random elements weighted by wcol: 4685323.000000
#Effective number of data elements weighted by wcol*wsys: 234315.000000
#Effective number of random elements weighted by wcol*wsys: 4685323.000000
#Effective redshift value from data 0.329346
#Effective redshift value from randoms 0.330058
#Size of the Box 2500.000000 Mpc/h
#Area of the survey used 5826.000000 deg^2
#Value of alpha: 0.049896
#Normalization using data file
#Normalization using density
#Normalization 4.337903
#Shot noise factor 1.000000
#Shot noise value 3644.195673
#Type of Computation: FFT
#Number of grid cells: 512
#Type of Mass Assigment: TSC
#Type of Yamamoto: GridCenter
#Number of Interlacing steps: 2
#Grid Correction: yes
#Value of Om=0.310000
#Quadrupole as L2
#Octopole as L3
#Hexadecapole as L2L2
#k-centerbin	 k-eff	 Monopole-Pshotnoise	 Dipole	 Quadrupole	 Octopole	 Hexadecapole	 number of modes	 Pshotnoise
0.005000 0.007385 67802.391058 -1690.208601 -21456.025110 -23688.601743 -13399.721982 250 3644.195673
0.015000 0.016012 80049.241442 1443.454395 18889.025745 -3203.893810 1824.969955 1852 3644.195673
0.025000 0.025646 66332.210799 3690.672701 10029.958134 4416.069028 -6307.697358 5020 3644.195673
0.035000 0.035469 45302.209519 1768.320655 15038.082809 709.688559 4270.584375 9756 3644.195673
0.045000 0.045368 36800.934766 192.207210 5361.592455 2269.807000 2160.739941 16108 3644.195673
0.055000 0.055314 35487.594991 513.554164 10583.360412 -1279.440437 -2288.951018 24064 3644.195673
0.065000 0.065258 30117.758520 694.539754 9733.788197 423.509626 -4954.304338 33396 3644.195673
0.075000 0.075209 26179.481250 638.859213 9396.015139 819.261703 -1602.142677 44596 3644.195673
0.085000 0.085175 21880.071216 484.984693 8201.730144 372.204049 3795.735605 57124 3644.195673
0.095000 0.095157 18215.931705 501.392157 6385.937836 219.873523 -961.283240 71620 3644.195673
0.105000 0.105162 15820.884984 332.535635 4280.252623 367.045642 -536.811647 87552 3644.195673
0.115000 0.115148 13922.876328 80.870374 3910.836343 282.189110 280.587260 104524 3644.195673
0.125000 0.125146 12550.002199 296.780343 3850.642288 38.668923 946.865244 124228 3644.195673
0.135000 0.135146 11651.377565 148.316289 3027.389318 219.809014 317.207523 144204 3644.195673
0.145000 0.145132 10137.944979 113.462678 2489.228216 167.393210 136.531911 166492 3644.195673
0.155000 0.155114 9357.061394 172.180838 2381.833539 94.630934 894.508904 189964 3644.195673
0.165000 0.165102 8222.665310 128.039879 2000.467283 18.075477 -88.850207 215640 3644.195673
0.175000 0.175105 7730.316138 103.232171 1666.188503 117.014131 370.686259 242836 3644.195673
0.185000 0.185097 6939.781076 94.514640 1284.691450 66.517496 724.420187 270556 3644.195673
0.195000 0.195085 6390.767466 87.959447 1364.381904 23.295000 267.029859 301084 3644.195673
0.205000 0.205080 5999.884715 92.208478 1255.799460 3.807924 308.976780 332628 3644.195673
0.215000 0.215092 5568.878564 41.646448 1194.068010 162.640379 656.914447 367216 3644.195673
0.225000 0.225099 5156.988148 89.608354 630.536629 -25.619050 234.246798 400444 3644.195673
0.235000 0.235081 4853.333182 77.921597 561.998916 68.311019 356.810771 436500 3644.195673
0.245000 0.245077 4488.147361 56.952647 293.499618 -5.284532 263.034141 475900 3644.195673
0.255000 0.255082 4212.916278 74.070501 533.790174 -34.670460 305.753403 514900 3644.195673
0.265000 0.265074 3981.790016 38.770602 425.491592 94.901410 232.381646 555408 3644.195673
0.275000 0.275066 3725.091379 57.096900 245.546622 -22.963611 333.229431 598684 3644.195673
0.285000 0.285066 3518.507581 52.755872 302.167479 68.913578 270.563307 643228 3644.195673
0.295000 0.295058 3323.489517 51.477059 164.536790 -11.634375 328.570547 688036 3644.195673
