#Data file /home/DATA/sbrieden/Patchy_dr12_mocks/prerecon/original/Patchy-Mocks-DR12LOWZ-N-V5C-Portsmouth-mass_0044.dat
#Random file /home/DATA/sbrieden/Patchy_dr12_mocks/prerecon/original/Random-DR12LOWZ-N-V5C-x20.dat
#Number of data elements used: 232591
#Number of random elements used: 4685323
#Effective number of data elements weighted by wcol: 232591.000000
#Effective number of random elements weighted by wcol: 4685323.000000
#Effective number of data elements weighted by wcol*wsys: 232591.000000
#Effective number of random elements weighted by wcol*wsys: 4685323.000000
#Effective redshift value from data 0.330786
#Effective redshift value from randoms 0.330058
#Size of the Box 2500.000000 Mpc/h
#Area of the survey used 5826.000000 deg^2
#Value of alpha: 0.049719
#Normalization using data file
#Normalization using density
#Normalization 4.316501
#Shot noise factor 1.000000
#Shot noise value 3662.632235
#Type of Computation: FFT
#Number of grid cells: 512
#Type of Mass Assigment: TSC
#Type of Yamamoto: GridCenter
#Number of Interlacing steps: 2
#Grid Correction: yes
#Value of Om=0.310000
#Quadrupole as L2
#Octopole as L3
#Hexadecapole as L2L2
#k-centerbin	 k-eff	 Monopole-Pshotnoise	 Dipole	 Quadrupole	 Octopole	 Hexadecapole	 number of modes	 Pshotnoise
0.005000 0.007385 90717.858815 -9904.809885 -34828.731892 -18120.685014 -23703.815047 250 3662.632235
0.015000 0.016012 67844.925291 65.018512 19791.351061 1580.883653 -7903.933939 1852 3662.632235
0.025000 0.025646 67391.826582 3320.637848 21113.319974 145.689195 -23202.241042 5020 3662.632235
0.035000 0.035469 46157.646468 2285.106989 12661.375870 3529.864011 9979.550596 9756 3662.632235
0.045000 0.045368 39261.236229 164.710984 13754.330467 3533.248212 11045.135902 16108 3662.632235
0.055000 0.055314 34684.130830 707.227093 8130.980248 -554.578011 13894.014562 24064 3662.632235
0.065000 0.065258 31375.597435 756.877331 10059.224191 516.022254 -2010.994073 33396 3662.632235
0.075000 0.075209 24967.610321 738.014271 7221.751948 414.069485 393.971782 44596 3662.632235
0.085000 0.085175 21802.721810 304.719526 6662.624830 -36.902329 -1952.845165 57124 3662.632235
0.095000 0.095157 18289.128795 436.306873 7755.891508 747.745557 1192.988156 71620 3662.632235
0.105000 0.105162 16044.680043 295.368319 4761.981577 512.022868 -614.798716 87552 3662.632235
0.115000 0.115148 13783.229524 232.614125 3047.584284 156.789362 -75.159568 104524 3662.632235
0.125000 0.125146 12357.413904 141.410909 3137.064646 -83.025437 1205.677540 124228 3662.632235
0.135000 0.135146 11620.984571 267.823723 3243.803120 143.860377 255.869201 144204 3662.632235
0.145000 0.145132 9954.270857 118.610700 3224.664431 224.974851 713.806683 166492 3662.632235
0.155000 0.155114 9117.923373 168.005379 1823.612278 78.096455 141.142185 189964 3662.632235
0.165000 0.165102 8304.219021 87.908496 1986.829729 107.981540 816.426226 215640 3662.632235
0.175000 0.175105 7804.888478 86.390133 1271.486989 46.023174 243.088307 242836 3662.632235
0.185000 0.185097 7181.592417 100.693150 1482.462143 -1.227570 450.473217 270556 3662.632235
0.195000 0.195085 6535.103002 123.994437 1590.277888 40.616502 509.772671 301084 3662.632235
0.205000 0.205080 6039.019215 66.543846 1435.668149 42.054102 81.761197 332628 3662.632235
0.215000 0.215092 5588.470931 70.433750 797.570582 101.019604 271.436294 367216 3662.632235
0.225000 0.225099 5202.763822 53.142915 923.021390 52.834211 40.234693 400444 3662.632235
0.235000 0.235081 4914.700727 70.789427 849.086074 60.641326 533.440927 436500 3662.632235
0.245000 0.245077 4623.110750 72.140510 737.966435 33.310449 528.904447 475900 3662.632235
0.255000 0.255082 4237.769776 59.068564 393.734862 -16.201400 620.170576 514900 3662.632235
0.265000 0.265074 4010.275850 66.972650 357.868083 46.346940 315.972066 555408 3662.632235
0.275000 0.275066 3698.502985 66.258230 320.895495 -44.612116 189.367238 598684 3662.632235
0.285000 0.285066 3488.436683 27.882879 224.689255 74.460423 130.515787 643228 3662.632235
0.295000 0.295058 3334.842915 68.178498 181.964705 -40.356450 212.566369 688036 3662.632235
