#Data file /home/DATA/sbrieden/Patchy_dr12_mocks/prerecon/original/Patchy-Mocks-DR12LOWZ-S-V5C-Portsmouth-mass_0042.dat
#Random file /home/DATA/sbrieden/Patchy_dr12_mocks/prerecon/original/Random-DR12LOWZ-S-V5C-x20.dat
#Number of data elements used: 98374
#Number of random elements used: 2007904
#Effective number of data elements weighted by wcol: 98374.000000
#Effective number of random elements weighted by wcol: 2007904.000000
#Effective number of data elements weighted by wcol*wsys: 98374.000000
#Effective number of random elements weighted by wcol*wsys: 2007904.000000
#Effective redshift value from data 0.330086
#Effective redshift value from randoms 0.330155
#Size of the Box 2500.000000 Mpc/h
#Area of the survey used 2501.000000 deg^2
#Value of alpha: 0.049050
#Normalization using data file
#Normalization using density
#Normalization 1.825343
#Shot noise factor 1.000000
#Shot noise value 3658.112406
#Type of Computation: FFT
#Number of grid cells: 512
#Type of Mass Assigment: TSC
#Type of Yamamoto: GridCenter
#Number of Interlacing steps: 2
#Grid Correction: yes
#Value of Om=0.310000
#Quadrupole as L2
#Octopole as L3
#Hexadecapole as L2L2
#k-centerbin	 k-eff	 Monopole-Pshotnoise	 Dipole	 Quadrupole	 Octopole	 Hexadecapole	 number of modes	 Pshotnoise
0.005000 0.007385 68047.289709 -3915.151635 44071.515505 -41033.770062 -85835.153731 250 3658.112406
0.015000 0.016012 81319.166014 1344.869609 50647.473861 19503.721654 12024.900585 1852 3658.112406
0.025000 0.025646 62321.684239 4058.768108 11170.370460 4010.932981 17011.250673 5020 3658.112406
0.035000 0.035469 46411.105500 1757.431349 13886.648901 -1967.069687 -20040.541731 9756 3658.112406
0.045000 0.045368 39866.647949 -21.733935 8087.269734 1977.673675 -4001.477855 16108 3658.112406
0.055000 0.055314 32548.369920 1444.170665 11419.362823 1195.484859 6098.723821 24064 3658.112406
0.065000 0.065258 29723.888577 68.787656 9748.858358 763.773045 414.649253 33396 3658.112406
0.075000 0.075209 26182.808381 664.130048 10149.076451 -305.221445 -1679.915709 44596 3658.112406
0.085000 0.085175 22177.722482 461.183313 6854.732622 1479.588165 -521.853643 57124 3658.112406
0.095000 0.095157 18421.006117 519.959411 5707.950731 -18.787936 1410.205477 71620 3658.112406
0.105000 0.105162 15240.402107 394.168684 6920.389935 -19.565649 2614.630804 87552 3658.112406
0.115000 0.115148 13866.701801 121.013622 5048.333335 488.912243 1081.845203 104524 3658.112406
0.125000 0.125146 12525.793310 160.587819 4063.566299 212.873983 533.914845 124228 3658.112406
0.135000 0.135146 11488.864213 140.726489 3757.298964 457.841043 -78.973399 144204 3658.112406
0.145000 0.145132 10035.036725 168.170890 2707.531444 -51.861927 1265.724539 166492 3658.112406
0.155000 0.155114 8821.301843 191.693794 2326.514779 100.893754 984.271607 189964 3658.112406
0.165000 0.165102 8231.414047 89.262604 2487.064256 6.975522 234.702135 215640 3658.112406
0.175000 0.175105 7520.714481 135.337743 2243.639832 0.984180 138.081713 242836 3658.112406
0.185000 0.185097 6954.740419 115.039761 2204.629924 215.332972 1135.014084 270556 3658.112406
0.195000 0.195085 6479.555219 40.761835 1566.432428 98.114176 518.316389 301084 3658.112406
0.205000 0.205080 5906.772807 122.351211 1307.041106 37.721898 295.172458 332628 3658.112406
0.215000 0.215092 5377.069922 38.127305 1261.178268 52.416396 959.758628 367216 3658.112406
0.225000 0.225099 5233.614843 85.314765 1010.046880 75.355111 381.477080 400444 3658.112406
0.235000 0.235081 4730.528578 56.324645 641.485024 23.781013 376.974619 436500 3658.112406
0.245000 0.245077 4452.239086 73.799438 636.230839 9.218382 174.284062 475900 3658.112406
0.255000 0.255082 4136.319432 63.880826 339.218435 10.000016 -212.934907 514900 3658.112406
0.265000 0.265074 3915.728667 50.389610 497.423971 -1.418563 181.902046 555408 3658.112406
0.275000 0.275066 3638.297035 54.976245 665.907155 14.401825 524.576887 598684 3658.112406
0.285000 0.285066 3504.150481 42.848914 314.194794 91.619366 589.198184 643228 3658.112406
0.295000 0.295058 3270.889844 41.392784 145.903207 -15.294069 376.786704 688036 3658.112406
