#Data file /home/DATA/sbrieden/Patchy_dr12_mocks/prerecon/original/Patchy-Mocks-DR12CMASS-N-V6C-Portsmouth-mass_0044.dat
#Random file /home/DATA/sbrieden/Patchy_dr12_mocks/prerecon/original/Random-DR12CMASS-N-V6C-x20.dat
#Number of data elements used: 589814
#Number of random elements used: 11797448
#Effective number of data elements weighted by wcol: 589814.000000
#Effective number of random elements weighted by wcol: 11797448.000000
#Effective number of data elements weighted by wcol*wsys: 589814.000000
#Effective number of random elements weighted by wcol*wsys: 11797448.000000
#Effective redshift value from data 0.597781
#Effective redshift value from randoms 0.597992
#Size of the Box 3700.000000 Mpc/h
#Area of the survey used 6851.000000 deg^2
#Value of alpha: 0.049971
#Normalization using data file
#Normalization using density
#Normalization 11.086116
#Shot noise factor 1.000000
#Shot noise value 4934.561539
#Type of Computation: FFT
#Number of grid cells: 512
#Type of Mass Assigment: TSC
#Type of Yamamoto: GridCenter
#Number of Interlacing steps: 2
#Grid Correction: yes
#Value of Om=0.310000
#Quadrupole as L2
#Octopole as L3
#Hexadecapole as L2L2
#k-centerbin	 k-eff	 Monopole-Pshotnoise	 Dipole	 Quadrupole	 Octopole	 Hexadecapole	 number of modes	 Pshotnoise
0.005000 0.007485 46707.507144 -2666.441135 -4997.825299 -12258.677549 -24884.999827 846 4934.561539
0.015000 0.016072 62393.352357 652.371719 25258.133341 601.642529 -18745.857237 6012 4934.561539
0.025000 0.025646 58156.806471 994.571682 10308.049381 566.491435 -226.113863 16172 4934.561539
0.035000 0.035469 45852.647918 956.818703 15347.105439 835.541746 -5056.961538 31764 4934.561539
0.045000 0.045378 36576.979338 824.503397 16644.240276 140.588855 -1313.945360 52164 4934.561539
0.055000 0.055280 31736.062099 187.579277 12726.394948 1249.557980 -1063.144826 77396 4934.561539
0.065000 0.065232 26364.749615 368.587565 9479.188754 364.795743 435.474474 108936 4934.561539
0.075000 0.075229 23374.679012 340.721334 8086.490220 178.704504 -192.012993 144980 4934.561539
0.085000 0.085193 20053.959427 299.673380 8274.476678 411.276648 2638.353728 184854 4934.561539
0.095000 0.095166 17014.408264 214.957322 6907.884353 240.103007 1353.594550 232260 4934.561539
0.105000 0.105155 14688.270768 153.224041 5704.534530 313.284666 1433.397513 282884 4934.561539
0.115000 0.115131 12950.487219 127.940931 3911.202917 147.724886 100.266595 339084 4934.561539
0.125000 0.125124 11873.468415 132.166821 3727.155528 -40.636160 154.096993 401864 4934.561539
0.135000 0.135125 10852.977417 123.512222 3255.687692 159.873503 -2.187199 468084 4934.561539
0.145000 0.145120 9688.029884 108.782600 3241.610842 69.982200 280.575807 539940 4934.561539
0.155000 0.155118 8659.049035 111.595719 2763.314319 88.752050 1021.097002 617324 4934.561539
0.165000 0.165105 7762.143972 91.537061 2457.053629 45.036063 434.352754 697452 4934.561539
0.175000 0.175088 7093.220942 81.641511 2131.056499 63.737549 523.869252 785846 4934.561539
0.185000 0.185089 6525.681092 74.714954 1437.068498 56.963197 280.030282 879528 4934.561539
0.195000 0.195093 6074.067635 57.746858 1380.298062 38.110394 537.384165 976596 4934.561539
0.205000 0.205084 5660.154090 78.315502 1175.568963 38.255804 283.051112 1077212 4934.561539
0.215000 0.215076 5209.417327 68.708188 977.231350 -1.554096 399.617542 1186908 4934.561539
0.225000 0.225076 4778.087035 59.351235 958.411448 47.636657 303.677283 1299452 4934.561539
0.235000 0.235073 4516.688599 59.742897 845.235512 9.885071 412.906227 1417356 4934.561539
0.245000 0.245067 4301.806662 45.498668 792.702848 47.391819 337.613495 1539600 4934.561539
0.255000 0.255064 4072.996686 62.814930 681.803381 -4.907038 524.069279 1669820 4934.561539
0.265000 0.265061 3831.717154 64.097596 574.770604 7.508505 375.873268 1801086 4934.561539
0.275000 0.275060 3565.693288 58.069182 314.694109 32.180526 328.670176 1942244 4934.561539
0.285000 0.285062 3294.296250 62.578283 402.022365 -10.676150 218.294583 2084796 4934.561539
0.295000 0.295057 3143.364109 52.424172 301.902454 7.416528 9.530956 2231868 4934.561539
