#Data file /home/DATA/sbrieden/Patchy_dr12_mocks/prerecon/original/Patchy-Mocks-DR12LOWZ-N-V5C-Portsmouth-mass_0047.dat
#Random file /home/DATA/sbrieden/Patchy_dr12_mocks/prerecon/original/Random-DR12LOWZ-N-V5C-x20.dat
#Number of data elements used: 233791
#Number of random elements used: 4685323
#Effective number of data elements weighted by wcol: 233791.000000
#Effective number of random elements weighted by wcol: 4685323.000000
#Effective number of data elements weighted by wcol*wsys: 233791.000000
#Effective number of random elements weighted by wcol*wsys: 4685323.000000
#Effective redshift value from data 0.330410
#Effective redshift value from randoms 0.330058
#Size of the Box 2500.000000 Mpc/h
#Area of the survey used 5826.000000 deg^2
#Value of alpha: 0.049923
#Normalization using data file
#Normalization using density
#Normalization 4.336003
#Shot noise factor 1.000000
#Shot noise value 3657.591077
#Type of Computation: FFT
#Number of grid cells: 512
#Type of Mass Assigment: TSC
#Type of Yamamoto: GridCenter
#Number of Interlacing steps: 2
#Grid Correction: yes
#Value of Om=0.310000
#Quadrupole as L2
#Octopole as L3
#Hexadecapole as L2L2
#k-centerbin	 k-eff	 Monopole-Pshotnoise	 Dipole	 Quadrupole	 Octopole	 Hexadecapole	 number of modes	 Pshotnoise
0.005000 0.007385 28560.259564 -5038.975032 -480.847547 -10218.044968 -14098.210298 250 3657.591077
0.015000 0.016012 85774.827247 212.894911 13096.303561 5986.557937 2795.367252 1852 3657.591077
0.025000 0.025646 68059.787208 2417.951720 12679.955468 345.016355 5551.273894 5020 3657.591077
0.035000 0.035469 51211.702752 1099.580600 11848.495245 1264.140525 -1129.930935 9756 3657.591077
0.045000 0.045368 42960.027329 1584.976482 8365.110314 -1113.817821 -682.775820 16108 3657.591077
0.055000 0.055314 36293.348064 924.612487 16071.922890 2713.650799 10054.594552 24064 3657.591077
0.065000 0.065258 28796.307830 806.482358 9488.099310 855.848148 6879.663029 33396 3657.591077
0.075000 0.075209 24699.614330 452.174557 8234.999523 -28.809317 -1850.570217 44596 3657.591077
0.085000 0.085175 21815.555752 505.006335 7468.724185 444.822785 139.572852 57124 3657.591077
0.095000 0.095157 17782.402960 331.373268 6007.952176 569.525709 1949.449150 71620 3657.591077
0.105000 0.105162 15242.731743 319.391401 4717.306080 501.460175 2153.723577 87552 3657.591077
0.115000 0.115148 13921.407375 212.071308 3884.523151 -88.655095 824.208682 104524 3657.591077
0.125000 0.125146 12433.227937 183.188199 4246.687916 209.461229 852.057979 124228 3657.591077
0.135000 0.135146 11403.810603 156.061592 3695.957971 167.471315 239.422351 144204 3657.591077
0.145000 0.145132 10138.614217 198.201021 2878.718846 241.437277 1004.226105 166492 3657.591077
0.155000 0.155114 9029.055432 134.987429 2900.713695 36.366222 1161.340738 189964 3657.591077
0.165000 0.165102 8267.685111 123.406334 2181.578097 80.846256 835.084951 215640 3657.591077
0.175000 0.175105 7585.157482 82.115366 1799.474966 79.496090 -416.159813 242836 3657.591077
0.185000 0.185097 7102.684347 58.952652 1528.722245 215.067916 257.291009 270556 3657.591077
0.195000 0.195085 6549.999555 112.739454 996.350919 -59.648512 716.524406 301084 3657.591077
0.205000 0.205080 6017.641910 96.514891 1246.066374 56.360477 171.586694 332628 3657.591077
0.215000 0.215092 5525.623095 78.378016 1081.484850 33.523219 270.532744 367216 3657.591077
0.225000 0.225099 5091.396741 61.507990 743.739459 89.061444 482.206587 400444 3657.591077
0.235000 0.235081 4820.789549 45.759611 697.409635 45.079031 374.143931 436500 3657.591077
0.245000 0.245077 4418.544310 87.360706 502.477408 -7.330999 333.673591 475900 3657.591077
0.255000 0.255082 4249.135469 48.570545 528.492351 23.978844 279.733008 514900 3657.591077
0.265000 0.265074 4012.587689 57.614094 403.873859 23.986604 359.203601 555408 3657.591077
0.275000 0.275066 3701.481757 36.629916 268.567137 57.747254 478.254713 598684 3657.591077
0.285000 0.285066 3495.056785 75.023647 219.446066 -30.916949 389.947076 643228 3657.591077
0.295000 0.295058 3263.634075 51.511589 128.132745 18.482632 164.484881 688036 3657.591077
