#Data file /home/DATA/sbrieden/Patchy_dr12_mocks/prerecon/original/Patchy-Mocks-DR12CMASS-N-V6C-Portsmouth-mass_0090.dat
#Random file /home/DATA/sbrieden/Patchy_dr12_mocks/prerecon/original/Random-DR12CMASS-N-V6C-x20.dat
#Number of data elements used: 591582
#Number of random elements used: 11797448
#Effective number of data elements weighted by wcol: 591582.000000
#Effective number of random elements weighted by wcol: 11797448.000000
#Effective number of data elements weighted by wcol*wsys: 591582.000000
#Effective number of random elements weighted by wcol*wsys: 11797448.000000
#Effective redshift value from data 0.597783
#Effective redshift value from randoms 0.597992
#Size of the Box 3700.000000 Mpc/h
#Area of the survey used 6851.000000 deg^2
#Value of alpha: 0.050078
#Normalization using data file
#Normalization using density
#Normalization 11.113823
#Shot noise factor 1.000000
#Shot noise value 4929.729123
#Type of Computation: FFT
#Number of grid cells: 512
#Type of Mass Assigment: TSC
#Type of Yamamoto: GridCenter
#Number of Interlacing steps: 2
#Grid Correction: yes
#Value of Om=0.310000
#Quadrupole as L2
#Octopole as L3
#Hexadecapole as L2L2
#k-centerbin	 k-eff	 Monopole-Pshotnoise	 Dipole	 Quadrupole	 Octopole	 Hexadecapole	 number of modes	 Pshotnoise
0.005000 0.007485 53097.135197 -1667.998312 11645.196472 -1116.929189 -7737.113719 846 4929.729123
0.015000 0.016072 66849.378634 7.800473 14231.564091 5854.880568 15111.105443 6012 4929.729123
0.025000 0.025646 61665.450040 1136.128863 24416.139543 -1301.996410 -6003.621040 16172 4929.729123
0.035000 0.035469 48494.971321 1284.599301 20428.244599 2123.439646 -3157.987191 31764 4929.729123
0.045000 0.045378 37988.411009 694.876764 14949.650108 1255.373006 1618.541272 52164 4929.729123
0.055000 0.055280 31321.106588 463.874413 14388.759019 620.680176 6089.116464 77396 4929.729123
0.065000 0.065232 28218.273702 344.520456 12346.072489 871.772689 2921.254659 108936 4929.729123
0.075000 0.075229 23936.799165 343.229363 9084.240673 -106.393096 2805.714453 144980 4929.729123
0.085000 0.085193 20297.106522 254.622200 8074.171779 524.741510 197.753966 184854 4929.729123
0.095000 0.095166 17322.352078 238.427679 6312.037123 162.358665 1149.607836 232260 4929.729123
0.105000 0.105155 14799.201582 186.813631 5557.331888 252.333256 -341.645418 282884 4929.729123
0.115000 0.115131 12776.904414 135.123149 4382.417013 180.612422 415.567518 339084 4929.729123
0.125000 0.125124 12089.516386 130.557355 3530.391858 82.735463 731.393236 401864 4929.729123
0.135000 0.135125 10707.529705 116.569496 3319.321317 62.976728 508.938445 468084 4929.729123
0.145000 0.145120 9743.128075 111.149234 3045.987166 81.070089 399.116547 539940 4929.729123
0.155000 0.155118 8856.366345 83.094111 2584.609746 89.793665 48.340563 617324 4929.729123
0.165000 0.165105 7955.124350 112.660223 2326.775024 34.633371 213.441687 697452 4929.729123
0.175000 0.175088 7112.052178 88.398315 2289.425992 46.595722 385.256158 785846 4929.729123
0.185000 0.185089 6693.453573 63.743816 1616.252193 99.719634 407.919724 879528 4929.729123
0.195000 0.195093 6244.008445 64.146465 1142.274376 43.050891 704.391024 976596 4929.729123
0.205000 0.205084 5706.649335 76.169588 1334.148925 -10.777241 339.257466 1077212 4929.729123
0.215000 0.215076 5347.241586 68.883385 1162.099551 10.431194 109.846989 1186908 4929.729123
0.225000 0.225076 4852.678129 66.705434 1065.235583 56.484503 304.284612 1299452 4929.729123
0.235000 0.235073 4600.772210 47.554404 904.752000 25.733430 220.014166 1417356 4929.729123
0.245000 0.245067 4318.912050 60.926552 714.511303 24.956938 192.545871 1539600 4929.729123
0.255000 0.255064 4025.741025 70.722537 576.183292 16.510269 102.581099 1669820 4929.729123
0.265000 0.265061 3724.889382 54.891345 461.102382 11.095246 201.610469 1801086 4929.729123
0.275000 0.275060 3577.516702 50.041020 200.994514 11.379883 20.390545 1942244 4929.729123
0.285000 0.285062 3391.063790 54.652401 224.086704 23.354292 253.029569 2084796 4929.729123
0.295000 0.295057 3161.127472 61.312568 277.687569 -4.772468 352.698769 2231868 4929.729123
