#Data file /home/DATA/sbrieden/Patchy_dr12_mocks/prerecon/original/Patchy-Mocks-DR12CMASS-S-V6C-Portsmouth-mass_0033.dat
#Random file /home/DATA/sbrieden/Patchy_dr12_mocks/prerecon/original/Random-DR12CMASS-S-V6C-x20.dat
#Number of data elements used: 213664
#Number of random elements used: 4288842
#Effective number of data elements weighted by wcol: 213664.000000
#Effective number of random elements weighted by wcol: 4288842.000000
#Effective number of data elements weighted by wcol*wsys: 213664.000000
#Effective number of random elements weighted by wcol*wsys: 4288842.000000
#Effective redshift value from data 0.598039
#Effective redshift value from randoms 0.597190
#Size of the Box 3700.000000 Mpc/h
#Area of the survey used 2525.000000 deg^2
#Value of alpha: 0.050078
#Normalization using data file
#Normalization using density
#Normalization 4.066250
#Shot noise factor 1.000000
#Shot noise value 4975.617400
#Type of Computation: FFT
#Number of grid cells: 512
#Type of Mass Assigment: TSC
#Type of Yamamoto: GridCenter
#Number of Interlacing steps: 2
#Grid Correction: yes
#Value of Om=0.310000
#Quadrupole as L2
#Octopole as L3
#Hexadecapole as L2L2
#k-centerbin	 k-eff	 Monopole-Pshotnoise	 Dipole	 Quadrupole	 Octopole	 Hexadecapole	 number of modes	 Pshotnoise
0.005000 0.007485 39131.420598 -5340.066593 29830.735655 -1280.584058 -5657.816780 846 4975.617400
0.015000 0.016072 66433.252935 1425.852684 40389.306484 6073.316743 -18297.191068 6012 4975.617400
0.025000 0.025646 54243.415581 388.506816 26575.620758 619.649547 -5335.088061 16172 4975.617400
0.035000 0.035469 48134.310529 1347.336699 19802.627864 3891.935611 7077.377635 31764 4975.617400
0.045000 0.045378 35588.378405 512.582649 16270.780023 516.695987 12116.237529 52164 4975.617400
0.055000 0.055280 30513.719593 325.941002 13927.313754 1193.689877 669.853865 77396 4975.617400
0.065000 0.065232 26157.255362 401.892380 9765.684846 445.901688 2403.638704 108936 4975.617400
0.075000 0.075229 23088.170010 303.324349 6264.985857 145.061669 2774.730257 144980 4975.617400
0.085000 0.085193 20041.896359 290.631472 7632.788161 35.036918 437.377446 184854 4975.617400
0.095000 0.095166 17263.516433 211.934920 6468.490554 382.361279 144.686370 232260 4975.617400
0.105000 0.105155 14441.125587 226.094312 4678.095452 197.680805 382.976739 282884 4975.617400
0.115000 0.115131 12554.350521 99.524918 4335.996401 142.993469 477.934758 339084 4975.617400
0.125000 0.125124 11770.986092 136.426950 3714.431030 13.464993 329.680846 401864 4975.617400
0.135000 0.135125 10842.268740 121.584617 3310.302562 6.367953 -328.052211 468084 4975.617400
0.145000 0.145120 9333.278659 98.852077 3015.152580 189.143598 199.197916 539940 4975.617400
0.155000 0.155118 8511.418420 105.451695 2453.022372 50.211412 -160.873908 617324 4975.617400
0.165000 0.165105 7650.965972 91.733245 1851.950350 42.712537 -205.374660 697452 4975.617400
0.175000 0.175088 7188.984538 59.818827 2010.892829 57.852858 269.469018 785846 4975.617400
0.185000 0.185089 6607.853441 79.792487 1636.447045 66.813433 346.098585 879528 4975.617400
0.195000 0.195093 5956.480075 87.105581 1205.093455 -27.363580 -124.289155 976596 4975.617400
0.205000 0.205084 5588.864196 61.596953 1317.340563 49.749193 -371.545624 1077212 4975.617400
0.215000 0.215076 5335.574362 61.435646 1504.317208 15.654593 224.153652 1186908 4975.617400
0.225000 0.225076 4928.652467 69.380240 1122.447117 38.668510 413.640717 1299452 4975.617400
0.235000 0.235073 4531.920738 59.592914 985.457644 20.636681 -95.714649 1417356 4975.617400
0.245000 0.245067 4332.139221 57.800205 726.963751 30.482436 -299.441666 1539600 4975.617400
0.255000 0.255064 3904.273337 65.918524 502.640836 26.786048 115.158937 1669820 4975.617400
0.265000 0.265061 3681.847640 47.906193 361.335802 38.730393 36.278789 1801086 4975.617400
0.275000 0.275060 3560.673732 58.571739 171.672374 -31.917002 -133.452365 1942244 4975.617400
0.285000 0.285062 3342.849700 54.410915 248.651320 21.481752 112.387426 2084796 4975.617400
0.295000 0.295057 3108.261000 53.852856 195.015569 22.701506 140.968756 2231868 4975.617400
