#Data file /home/DATA/sbrieden/Patchy_dr12_mocks/prerecon/original/Patchy-Mocks-DR12LOWZ-S-V5C-Portsmouth-mass_0056.dat
#Random file /home/DATA/sbrieden/Patchy_dr12_mocks/prerecon/original/Random-DR12LOWZ-S-V5C-x20.dat
#Number of data elements used: 100969
#Number of random elements used: 2007904
#Effective number of data elements weighted by wcol: 100969.000000
#Effective number of random elements weighted by wcol: 2007904.000000
#Effective number of data elements weighted by wcol*wsys: 100969.000000
#Effective number of random elements weighted by wcol*wsys: 2007904.000000
#Effective redshift value from data 0.330078
#Effective redshift value from randoms 0.330155
#Size of the Box 2500.000000 Mpc/h
#Area of the survey used 2501.000000 deg^2
#Value of alpha: 0.050279
#Normalization using data file
#Normalization using density
#Normalization 1.871915
#Shot noise factor 1.000000
#Shot noise value 3656.522047
#Type of Computation: FFT
#Number of grid cells: 512
#Type of Mass Assigment: TSC
#Type of Yamamoto: GridCenter
#Number of Interlacing steps: 2
#Grid Correction: yes
#Value of Om=0.310000
#Quadrupole as L2
#Octopole as L3
#Hexadecapole as L2L2
#k-centerbin	 k-eff	 Monopole-Pshotnoise	 Dipole	 Quadrupole	 Octopole	 Hexadecapole	 number of modes	 Pshotnoise
0.005000 0.007385 21574.463089 -5135.656944 -4886.016536 -9513.420023 -11023.966411 250 3656.522047
0.015000 0.016012 59453.556588 -2417.662734 -14735.194877 -6907.759810 -20720.666277 1852 3656.522047
0.025000 0.025646 57695.029883 1604.505688 -5396.047879 -5328.885007 8387.042286 5020 3656.522047
0.035000 0.035469 45529.229414 1889.506041 7839.098323 266.630401 -4892.625111 9756 3656.522047
0.045000 0.045368 33477.172915 938.154340 9206.087473 523.163272 4245.286222 16108 3656.522047
0.055000 0.055314 31420.832436 652.619862 12020.923913 410.136617 -2115.412100 24064 3656.522047
0.065000 0.065258 28313.535437 476.966169 14606.354304 1816.127885 9844.854876 33396 3656.522047
0.075000 0.075209 24445.631330 284.974324 8135.091324 120.650483 1580.931523 44596 3656.522047
0.085000 0.085175 21194.637524 508.091369 5589.634134 788.628015 -3370.840849 57124 3656.522047
0.095000 0.095157 18871.414227 299.952856 3831.243118 196.726460 -1856.883930 71620 3656.522047
0.105000 0.105162 15429.229980 563.334303 5627.361645 -152.225014 -1832.245852 87552 3656.522047
0.115000 0.115148 13991.893860 29.948835 3280.074290 509.328706 -1026.928211 104524 3656.522047
0.125000 0.125146 12198.367239 223.361057 3175.894778 102.819581 -100.556654 124228 3656.522047
0.135000 0.135146 11745.435591 141.205280 3156.102586 452.290688 1728.993857 144204 3656.522047
0.145000 0.145132 10287.460380 224.058678 2861.728341 -149.182941 2516.101532 166492 3656.522047
0.155000 0.155114 9318.875201 147.119503 3024.278690 169.718194 930.873546 189964 3656.522047
0.165000 0.165102 8026.609585 151.652485 2055.949479 88.042777 608.554757 215640 3656.522047
0.175000 0.175105 7559.274134 34.030167 1859.901735 219.361413 432.582349 242836 3656.522047
0.185000 0.185097 7103.522647 109.124447 1184.573593 21.415988 960.967141 270556 3656.522047
0.195000 0.195085 6533.502996 116.128580 1571.151539 63.829203 984.191354 301084 3656.522047
0.205000 0.205080 6004.816923 36.192273 1142.814077 82.936429 285.938391 332628 3656.522047
0.215000 0.215092 5535.045282 104.932208 419.764957 127.551679 799.840092 367216 3656.522047
0.225000 0.225099 4890.365397 92.655317 520.653638 -95.418433 117.373163 400444 3656.522047
0.235000 0.235081 4649.219732 49.250270 497.026237 -24.949083 94.600914 436500 3656.522047
0.245000 0.245077 4370.973106 47.525126 276.532664 99.688414 -294.353966 475900 3656.522047
0.255000 0.255082 4167.147013 57.243498 349.208176 -18.637016 254.092366 514900 3656.522047
0.265000 0.265074 3941.483624 70.842617 479.313520 70.710388 975.150792 555408 3656.522047
0.275000 0.275066 3708.454353 37.427745 286.679887 1.978387 944.366574 598684 3656.522047
0.285000 0.285066 3440.984011 61.237214 152.207641 -41.324321 41.953266 643228 3656.522047
0.295000 0.295058 3324.657766 34.649276 22.572321 71.423336 -56.869490 688036 3656.522047
