#Data file /home/DATA/sbrieden/Patchy_dr12_mocks/prerecon/original/Patchy-Mocks-DR12CMASS-N-V6C-Portsmouth-mass_0056.dat
#Random file /home/DATA/sbrieden/Patchy_dr12_mocks/prerecon/original/Random-DR12CMASS-N-V6C-x20.dat
#Number of data elements used: 594379
#Number of random elements used: 11797448
#Effective number of data elements weighted by wcol: 594379.000000
#Effective number of random elements weighted by wcol: 11797448.000000
#Effective number of data elements weighted by wcol*wsys: 594379.000000
#Effective number of random elements weighted by wcol*wsys: 11797448.000000
#Effective redshift value from data 0.597562
#Effective redshift value from randoms 0.597992
#Size of the Box 3700.000000 Mpc/h
#Area of the survey used 6851.000000 deg^2
#Value of alpha: 0.050224
#Normalization using data file
#Normalization using density
#Normalization 11.155697
#Shot noise factor 1.000000
#Shot noise value 4917.690876
#Type of Computation: FFT
#Number of grid cells: 512
#Type of Mass Assigment: TSC
#Type of Yamamoto: GridCenter
#Number of Interlacing steps: 2
#Grid Correction: yes
#Value of Om=0.310000
#Quadrupole as L2
#Octopole as L3
#Hexadecapole as L2L2
#k-centerbin	 k-eff	 Monopole-Pshotnoise	 Dipole	 Quadrupole	 Octopole	 Hexadecapole	 number of modes	 Pshotnoise
0.005000 0.007485 50861.342618 -6617.844894 29405.766444 -342.808308 -7571.491350 846 4917.690876
0.015000 0.016072 69783.284146 2659.027650 26282.734159 1795.346603 -2520.606440 6012 4917.690876
0.025000 0.025646 55377.786267 389.401561 13556.010188 3178.034978 -4061.777608 16172 4917.690876
0.035000 0.035469 47259.298031 1174.825760 14669.878732 -1249.716938 -4538.718764 31764 4917.690876
0.045000 0.045378 38396.294312 590.998319 15422.125773 915.246486 196.837632 52164 4917.690876
0.055000 0.055280 32407.082543 495.441348 14062.068206 1056.017317 -835.183482 77396 4917.690876
0.065000 0.065232 27191.961084 403.365715 10349.635359 347.063929 -67.036649 108936 4917.690876
0.075000 0.075229 23819.288201 245.212487 7422.423908 384.607493 3586.734380 144980 4917.690876
0.085000 0.085193 20456.237755 280.079762 7485.643120 309.429383 3124.685454 184854 4917.690876
0.095000 0.095166 17296.338507 275.199637 6564.058724 278.536198 1069.510881 232260 4917.690876
0.105000 0.105155 14680.536207 173.201512 5303.563785 96.576680 584.728155 282884 4917.690876
0.115000 0.115131 13153.740359 93.166552 4645.807125 293.547210 1539.802019 339084 4917.690876
0.125000 0.125124 11853.962888 151.680625 2939.708795 73.934225 1147.880355 401864 4917.690876
0.135000 0.135125 10794.502419 124.143555 2988.256512 78.094764 1108.468977 468084 4917.690876
0.145000 0.145120 9624.881215 119.472031 2424.151110 41.459994 757.604801 539940 4917.690876
0.155000 0.155118 8580.521126 99.123826 2868.218764 76.712603 277.135671 617324 4917.690876
0.165000 0.165105 7737.830813 84.774339 1988.858838 76.227335 456.858367 697452 4917.690876
0.175000 0.175088 7224.650326 77.779802 1796.019600 64.120361 440.847883 785846 4917.690876
0.185000 0.185089 6569.042833 82.388088 1663.283839 0.605432 337.567093 879528 4917.690876
0.195000 0.195093 6161.482976 52.403850 1385.686229 48.062056 257.172392 976596 4917.690876
0.205000 0.205084 5785.341407 62.882778 1318.542335 44.498630 42.840776 1077212 4917.690876
0.215000 0.215076 5395.977512 72.683751 985.218902 41.661850 374.718259 1186908 4917.690876
0.225000 0.225076 4889.079716 86.837761 792.767387 -15.814171 498.255111 1299452 4917.690876
0.235000 0.235073 4530.631182 48.386356 714.308512 26.725595 101.044994 1417356 4917.690876
0.245000 0.245067 4277.730622 67.846513 682.921582 1.139099 134.396040 1539600 4917.690876
0.255000 0.255064 4005.443878 49.925198 480.315772 44.023481 82.643590 1669820 4917.690876
0.265000 0.265061 3750.750038 55.718740 436.057120 24.005790 245.000420 1801086 4917.690876
0.275000 0.275060 3542.576390 60.628235 304.591996 6.969912 232.804286 1942244 4917.690876
0.285000 0.285062 3306.204425 54.658971 234.311679 2.949088 48.549791 2084796 4917.690876
0.295000 0.295057 3140.350904 47.277008 126.844530 28.557079 118.902477 2231868 4917.690876
