#Data file /home/DATA/sbrieden/Patchy_dr12_mocks/prerecon/original/Patchy-Mocks-DR12CMASS-S-V6C-Portsmouth-mass_0018.dat
#Random file /home/DATA/sbrieden/Patchy_dr12_mocks/prerecon/original/Random-DR12CMASS-S-V6C-x20.dat
#Number of data elements used: 217398
#Number of random elements used: 4288842
#Effective number of data elements weighted by wcol: 217398.000000
#Effective number of random elements weighted by wcol: 4288842.000000
#Effective number of data elements weighted by wcol*wsys: 217398.000000
#Effective number of random elements weighted by wcol*wsys: 4288842.000000
#Effective redshift value from data 0.596479
#Effective redshift value from randoms 0.597190
#Size of the Box 3700.000000 Mpc/h
#Area of the survey used 2525.000000 deg^2
#Value of alpha: 0.050505
#Normalization using data file
#Normalization using density
#Normalization 4.120650
#Shot noise factor 1.000000
#Shot noise value 4906.038144
#Type of Computation: FFT
#Number of grid cells: 512
#Type of Mass Assigment: TSC
#Type of Yamamoto: GridCenter
#Number of Interlacing steps: 2
#Grid Correction: yes
#Value of Om=0.310000
#Quadrupole as L2
#Octopole as L3
#Hexadecapole as L2L2
#k-centerbin	 k-eff	 Monopole-Pshotnoise	 Dipole	 Quadrupole	 Octopole	 Hexadecapole	 number of modes	 Pshotnoise
0.005000 0.007485 103713.923705 -4778.815994 -33062.145840 6999.268820 21963.445446 846 4906.038144
0.015000 0.016072 74349.482708 1826.429150 35727.262148 1462.449828 26550.404013 6012 4906.038144
0.025000 0.025646 62206.433377 2241.597812 19485.102249 2252.605668 2651.973764 16172 4906.038144
0.035000 0.035469 42776.037044 425.360780 18524.771966 2545.899061 7931.359726 31764 4906.038144
0.045000 0.045378 36728.567790 1082.281880 13907.397639 707.494126 2245.452896 52164 4906.038144
0.055000 0.055280 29578.233731 192.184466 9364.165456 593.265018 10656.179810 77396 4906.038144
0.065000 0.065232 27271.677858 202.266479 7879.550423 339.584640 -25.205904 108936 4906.038144
0.075000 0.075229 23298.319286 415.479283 8391.932184 211.310291 1528.054615 144980 4906.038144
0.085000 0.085193 20314.592884 282.067170 8533.080869 487.989089 1400.117484 184854 4906.038144
0.095000 0.095166 16298.513134 176.155968 5490.833418 149.166975 613.770549 232260 4906.038144
0.105000 0.105155 13907.148555 226.265906 4369.700404 231.203243 1467.488750 282884 4906.038144
0.115000 0.115131 13090.536157 143.231706 5043.438145 36.301596 170.483254 339084 4906.038144
0.125000 0.125124 11764.421388 90.104405 4079.685973 95.933481 768.720640 401864 4906.038144
0.135000 0.135125 10666.476432 153.718291 4079.673983 158.953768 1135.922417 468084 4906.038144
0.145000 0.145120 9529.284372 83.741064 3331.077479 130.996000 1272.652798 539940 4906.038144
0.155000 0.155118 8554.191774 123.829563 1885.669260 -23.190512 410.418167 617324 4906.038144
0.165000 0.165105 7613.045592 64.446207 2215.870892 163.481623 236.966777 697452 4906.038144
0.175000 0.175088 7203.640724 73.777553 1151.808199 0.941517 340.467512 785846 4906.038144
0.185000 0.185089 6831.861837 66.177550 1789.921537 -1.146316 508.210768 879528 4906.038144
0.195000 0.195093 6322.115969 79.156666 1471.396226 36.173589 -4.956482 976596 4906.038144
0.205000 0.205084 5845.455834 75.997474 1640.973743 12.901591 396.208780 1077212 4906.038144
0.215000 0.215076 5339.229209 69.215233 1334.930279 65.868090 590.581065 1186908 4906.038144
0.225000 0.225076 4874.149402 70.216306 922.798551 19.694141 209.301813 1299452 4906.038144
0.235000 0.235073 4651.107786 51.796964 745.582642 40.506719 327.557543 1417356 4906.038144
0.245000 0.245067 4313.958282 69.721919 669.170374 18.391871 172.748788 1539600 4906.038144
0.255000 0.255064 3996.817453 49.509410 476.906566 -4.718792 93.492165 1669820 4906.038144
0.265000 0.265061 3825.736442 62.673908 413.667732 35.265794 31.066387 1801086 4906.038144
0.275000 0.275060 3578.501484 45.404321 141.289869 38.282145 501.846295 1942244 4906.038144
0.285000 0.285062 3368.301516 66.824365 129.593491 -9.793115 250.832776 2084796 4906.038144
0.295000 0.295057 3111.736426 53.503892 62.497879 0.332975 305.519719 2231868 4906.038144
