#Data file /home/DATA/sbrieden/Patchy_dr12_mocks/prerecon/original/Patchy-Mocks-DR12LOWZ-N-V5C-Portsmouth-mass_0045.dat
#Random file /home/DATA/sbrieden/Patchy_dr12_mocks/prerecon/original/Random-DR12LOWZ-N-V5C-x20.dat
#Number of data elements used: 233708
#Number of random elements used: 4685323
#Effective number of data elements weighted by wcol: 233708.000000
#Effective number of random elements weighted by wcol: 4685323.000000
#Effective number of data elements weighted by wcol*wsys: 233708.000000
#Effective number of random elements weighted by wcol*wsys: 4685323.000000
#Effective redshift value from data 0.329808
#Effective redshift value from randoms 0.330058
#Size of the Box 2500.000000 Mpc/h
#Area of the survey used 5826.000000 deg^2
#Value of alpha: 0.049853
#Normalization using data file
#Normalization using density
#Normalization 4.331335
#Shot noise factor 1.000000
#Shot noise value 3652.836977
#Type of Computation: FFT
#Number of grid cells: 512
#Type of Mass Assigment: TSC
#Type of Yamamoto: GridCenter
#Number of Interlacing steps: 2
#Grid Correction: yes
#Value of Om=0.310000
#Quadrupole as L2
#Octopole as L3
#Hexadecapole as L2L2
#k-centerbin	 k-eff	 Monopole-Pshotnoise	 Dipole	 Quadrupole	 Octopole	 Hexadecapole	 number of modes	 Pshotnoise
0.005000 0.007385 47621.707018 -13764.724700 -4307.812663 -25612.637496 -3200.044032 250 3652.836977
0.015000 0.016012 90025.189684 3528.171731 21151.650254 8505.977541 -6395.388066 1852 3652.836977
0.025000 0.025646 64082.198753 4022.572227 47365.760194 1164.720975 -6389.973611 5020 3652.836977
0.035000 0.035469 49958.966969 653.438979 16019.949673 4459.461970 -1014.434181 9756 3652.836977
0.045000 0.045368 40738.307888 2106.972741 12914.408569 -1322.592012 -8820.153001 16108 3652.836977
0.055000 0.055314 34146.528695 222.967357 19773.799318 2214.494778 -1291.200971 24064 3652.836977
0.065000 0.065258 30249.225820 655.693978 11571.504302 1112.162777 513.491342 33396 3652.836977
0.075000 0.075209 25804.375642 593.661427 7865.833018 360.216323 -2512.684140 44596 3652.836977
0.085000 0.085175 21898.830506 579.767560 8120.698607 228.238756 -327.477040 57124 3652.836977
0.095000 0.095157 18286.682017 364.038575 6394.025135 664.394249 -1001.928208 71620 3652.836977
0.105000 0.105162 15676.988230 368.073329 5205.068365 504.595989 -1204.622403 87552 3652.836977
0.115000 0.115148 13124.580873 241.094708 3702.063166 167.442035 2332.486615 104524 3652.836977
0.125000 0.125146 12391.827216 62.027699 3856.751730 224.633524 1124.749371 124228 3652.836977
0.135000 0.135146 11527.216429 174.587672 3533.623478 253.198642 1861.527037 144204 3652.836977
0.145000 0.145132 10203.537160 244.903379 3105.861272 8.680398 264.791172 166492 3652.836977
0.155000 0.155114 9104.426641 95.181907 2572.669555 36.647107 424.660715 189964 3652.836977
0.165000 0.165102 8071.368780 124.658222 1854.254288 209.484514 344.762958 215640 3652.836977
0.175000 0.175105 7485.736945 130.042021 1887.396901 19.931243 418.911565 242836 3652.836977
0.185000 0.185097 6803.617994 83.088508 2178.926886 26.865229 854.401331 270556 3652.836977
0.195000 0.195085 6497.912559 94.481362 1869.871390 106.590900 464.181537 301084 3652.836977
0.205000 0.205080 6052.623463 53.469011 1406.078422 58.199884 -80.475240 332628 3652.836977
0.215000 0.215092 5455.966840 106.703097 1241.283789 49.563067 32.829798 367216 3652.836977
0.225000 0.225099 5073.237912 70.858726 1080.288473 -4.756815 419.916853 400444 3652.836977
0.235000 0.235081 4694.719274 64.294149 979.458434 60.145972 140.419793 436500 3652.836977
0.245000 0.245077 4390.054238 43.594626 632.133560 94.678739 384.691433 475900 3652.836977
0.255000 0.255082 4240.151595 32.988280 521.894977 28.443230 228.113582 514900 3652.836977
0.265000 0.265074 3969.163918 99.478066 351.717931 2.627900 367.813889 555408 3652.836977
0.275000 0.275066 3689.912794 29.668376 415.279794 24.010840 325.669891 598684 3652.836977
0.285000 0.285066 3483.838443 55.783254 -23.140089 6.902156 132.731247 643228 3652.836977
0.295000 0.295058 3286.653115 36.468603 44.457774 7.175574 24.191676 688036 3652.836977
