#Data file /home/DATA/sbrieden/Patchy_dr12_mocks/prerecon/original/Patchy-Mocks-DR12CMASS-S-V6C-Portsmouth-mass_0046.dat
#Random file /home/DATA/sbrieden/Patchy_dr12_mocks/prerecon/original/Random-DR12CMASS-S-V6C-x20.dat
#Number of data elements used: 213846
#Number of random elements used: 4288842
#Effective number of data elements weighted by wcol: 213846.000000
#Effective number of random elements weighted by wcol: 4288842.000000
#Effective number of data elements weighted by wcol*wsys: 213846.000000
#Effective number of random elements weighted by wcol*wsys: 4288842.000000
#Effective redshift value from data 0.597285
#Effective redshift value from randoms 0.597190
#Size of the Box 3700.000000 Mpc/h
#Area of the survey used 2525.000000 deg^2
#Value of alpha: 0.049856
#Normalization using data file
#Normalization using density
#Normalization 4.064111
#Shot noise factor 1.000000
#Shot noise value 4916.138481
#Type of Computation: FFT
#Number of grid cells: 512
#Type of Mass Assigment: TSC
#Type of Yamamoto: GridCenter
#Number of Interlacing steps: 2
#Grid Correction: yes
#Value of Om=0.310000
#Quadrupole as L2
#Octopole as L3
#Hexadecapole as L2L2
#k-centerbin	 k-eff	 Monopole-Pshotnoise	 Dipole	 Quadrupole	 Octopole	 Hexadecapole	 number of modes	 Pshotnoise
0.005000 0.007485 39171.715175 2209.094482 49349.461114 7315.599834 8813.896480 846 4916.138481
0.015000 0.016072 67049.403546 -951.274743 32617.202619 7507.638535 13792.035927 6012 4916.138481
0.025000 0.025646 58531.246540 1917.758218 27251.392124 1940.829483 -9368.703403 16172 4916.138481
0.035000 0.035469 48519.697368 542.672708 22610.674154 1874.533985 7486.900654 31764 4916.138481
0.045000 0.045378 35655.315553 874.093327 14471.893920 890.862308 502.048351 52164 4916.138481
0.055000 0.055280 32523.771902 404.229570 13335.421907 101.861118 -210.330600 77396 4916.138481
0.065000 0.065232 28953.094056 285.017925 9650.083743 980.237222 4946.365851 108936 4916.138481
0.075000 0.075229 24150.335824 315.053601 5217.748824 250.459907 -3318.365224 144980 4916.138481
0.085000 0.085193 19629.614901 394.216167 5751.259855 182.952297 1716.623564 184854 4916.138481
0.095000 0.095166 16923.705268 190.435211 5764.455031 44.150002 -377.252425 232260 4916.138481
0.105000 0.105155 14804.893733 204.695125 6384.457469 46.069132 -1212.185953 282884 4916.138481
0.115000 0.115131 13156.427204 96.787507 4559.884473 417.051841 827.577686 339084 4916.138481
0.125000 0.125124 11803.595102 163.452111 3613.886936 153.259283 2085.790462 401864 4916.138481
0.135000 0.135125 10382.112508 126.375177 4087.791256 -48.175325 1908.760997 468084 4916.138481
0.145000 0.145120 9559.590325 110.612415 3050.391372 72.092489 151.708593 539940 4916.138481
0.155000 0.155118 8404.859806 106.364059 3110.680363 92.618677 192.583384 617324 4916.138481
0.165000 0.165105 7580.305420 72.847993 2275.613018 92.252850 -47.604176 697452 4916.138481
0.175000 0.175088 7201.181162 51.847530 1896.092111 107.777924 51.277656 785846 4916.138481
0.185000 0.185089 6465.057476 85.737971 1181.847942 28.755156 74.003162 879528 4916.138481
0.195000 0.195093 6108.989657 74.737767 1104.218461 -9.174043 163.930979 976596 4916.138481
0.205000 0.205084 5692.333879 70.590288 1226.873032 -7.234491 -86.001714 1077212 4916.138481
0.215000 0.215076 5385.024910 56.242882 1130.188279 83.103991 -93.693297 1186908 4916.138481
0.225000 0.225076 4727.231749 88.392790 963.527634 -3.322388 175.612926 1299452 4916.138481
0.235000 0.235073 4414.677921 53.109170 854.545427 14.749241 169.626277 1417356 4916.138481
0.245000 0.245067 4151.580482 54.444379 712.018723 25.492292 26.357559 1539600 4916.138481
0.255000 0.255064 4007.652651 44.006521 813.923890 50.794290 374.058299 1669820 4916.138481
0.265000 0.265061 3712.316487 70.673146 280.874144 -2.446337 242.879545 1801086 4916.138481
0.275000 0.275060 3388.150174 48.597554 246.496866 25.556975 24.035148 1942244 4916.138481
0.285000 0.285062 3204.965782 53.629075 -8.866829 3.346706 16.663321 2084796 4916.138481
0.295000 0.295057 3161.574026 47.598026 162.398353 8.093977 160.036382 2231868 4916.138481
