#Data file /home/DATA/sbrieden/Patchy_dr12_mocks/prerecon/original/Patchy-Mocks-DR12LOWZ-N-V5C-Portsmouth-mass_0010.dat
#Random file /home/DATA/sbrieden/Patchy_dr12_mocks/prerecon/original/Random-DR12LOWZ-N-V5C-x20.dat
#Number of data elements used: 235038
#Number of random elements used: 4685323
#Effective number of data elements weighted by wcol: 235038.000000
#Effective number of random elements weighted by wcol: 4685323.000000
#Effective number of data elements weighted by wcol*wsys: 235038.000000
#Effective number of random elements weighted by wcol*wsys: 4685323.000000
#Effective redshift value from data 0.330454
#Effective redshift value from randoms 0.330058
#Size of the Box 2500.000000 Mpc/h
#Area of the survey used 5826.000000 deg^2
#Value of alpha: 0.050189
#Normalization using data file
#Normalization using density
#Normalization 4.358936
#Shot noise factor 1.000000
#Shot noise value 3659.008726
#Type of Computation: FFT
#Number of grid cells: 512
#Type of Mass Assigment: TSC
#Type of Yamamoto: GridCenter
#Number of Interlacing steps: 2
#Grid Correction: yes
#Value of Om=0.310000
#Quadrupole as L2
#Octopole as L3
#Hexadecapole as L2L2
#k-centerbin	 k-eff	 Monopole-Pshotnoise	 Dipole	 Quadrupole	 Octopole	 Hexadecapole	 number of modes	 Pshotnoise
0.005000 0.007385 42114.750183 -5947.387542 -14737.743925 1564.961090 15384.598079 250 3659.008726
0.015000 0.016012 64361.609426 -1602.603053 16707.726249 -5313.606328 -3960.219005 1852 3659.008726
0.025000 0.025646 56612.067153 1667.031707 12634.466976 3517.601749 -12833.595584 5020 3659.008726
0.035000 0.035469 46521.878704 2102.533767 21711.803220 1479.541308 8683.249846 9756 3659.008726
0.045000 0.045368 39861.482820 666.172333 21745.301366 2507.267895 13379.565019 16108 3659.008726
0.055000 0.055314 34675.104927 732.090438 11138.246400 867.040229 -1066.683746 24064 3659.008726
0.065000 0.065258 28969.853586 751.019243 11455.927134 436.183470 -1530.851682 33396 3659.008726
0.075000 0.075209 24632.727299 543.407055 8382.246203 849.828982 3263.364643 44596 3659.008726
0.085000 0.085175 22260.051057 289.859715 5952.846798 639.238515 314.629347 57124 3659.008726
0.095000 0.095157 18361.309689 422.483892 6969.451287 519.321261 1539.170298 71620 3659.008726
0.105000 0.105162 15879.869026 331.122510 5731.354735 -80.209684 1660.629711 87552 3659.008726
0.115000 0.115148 14077.602705 221.227603 5863.672677 458.732820 537.461119 104524 3659.008726
0.125000 0.125146 12372.224660 224.247468 3299.837566 259.468726 962.213302 124228 3659.008726
0.135000 0.135146 11341.704842 162.736699 2917.746600 -62.862822 561.974069 144204 3659.008726
0.145000 0.145132 10456.396621 180.824196 3347.775036 222.831122 314.551412 166492 3659.008726
0.155000 0.155114 9201.853453 134.818717 2512.561010 134.904700 883.730095 189964 3659.008726
0.165000 0.165102 8140.714446 122.032539 2534.236135 66.893183 1016.516665 215640 3659.008726
0.175000 0.175105 7437.778112 98.740462 2437.029589 35.956765 83.860471 242836 3659.008726
0.185000 0.185097 7021.881478 97.357099 2238.614424 26.761650 -135.717736 270556 3659.008726
0.195000 0.195085 6322.441529 88.259293 1689.243730 181.332102 408.072285 301084 3659.008726
0.205000 0.205080 6020.434608 77.723399 1574.109311 -23.628642 29.161169 332628 3659.008726
0.215000 0.215092 5620.629103 61.600207 1101.909941 165.028402 190.400887 367216 3659.008726
0.225000 0.225099 4990.296373 85.942757 763.179190 -17.323665 435.164401 400444 3659.008726
0.235000 0.235081 4721.725919 49.822046 585.621030 92.662272 69.467438 436500 3659.008726
0.245000 0.245077 4461.792698 69.528502 546.075669 -65.919568 160.946189 475900 3659.008726
0.255000 0.255082 4264.914092 49.433307 843.986050 39.203251 213.197295 514900 3659.008726
0.265000 0.265074 3924.556626 59.797917 469.332549 65.795943 146.029881 555408 3659.008726
0.275000 0.275066 3681.545328 67.854275 403.050962 3.109471 173.650053 598684 3659.008726
0.285000 0.285066 3465.023368 39.853582 367.927259 2.253855 159.592718 643228 3659.008726
0.295000 0.295058 3315.903827 43.804452 267.938962 0.445849 222.864456 688036 3659.008726
