#Data file /home/DATA/sbrieden/Patchy_dr12_mocks/prerecon/original/Patchy-Mocks-DR12CMASS-N-V6C-Portsmouth-mass_0075.dat
#Random file /home/DATA/sbrieden/Patchy_dr12_mocks/prerecon/original/Random-DR12CMASS-N-V6C-x20.dat
#Number of data elements used: 582991
#Number of random elements used: 11797448
#Effective number of data elements weighted by wcol: 582991.000000
#Effective number of random elements weighted by wcol: 11797448.000000
#Effective number of data elements weighted by wcol*wsys: 582991.000000
#Effective number of random elements weighted by wcol*wsys: 11797448.000000
#Effective redshift value from data 0.598639
#Effective redshift value from randoms 0.597992
#Size of the Box 3700.000000 Mpc/h
#Area of the survey used 6851.000000 deg^2
#Value of alpha: 0.049666
#Normalization using data file
#Normalization using density
#Normalization 10.991971
#Shot noise factor 1.000000
#Shot noise value 4969.014538
#Type of Computation: FFT
#Number of grid cells: 512
#Type of Mass Assigment: TSC
#Type of Yamamoto: GridCenter
#Number of Interlacing steps: 2
#Grid Correction: yes
#Value of Om=0.310000
#Quadrupole as L2
#Octopole as L3
#Hexadecapole as L2L2
#k-centerbin	 k-eff	 Monopole-Pshotnoise	 Dipole	 Quadrupole	 Octopole	 Hexadecapole	 number of modes	 Pshotnoise
0.005000 0.007485 73968.298540 8685.711287 78609.704523 29808.122059 36158.870173 846 4969.014538
0.015000 0.016072 63776.080598 -1001.921418 41796.029197 13336.024982 44151.330461 6012 4969.014538
0.025000 0.025646 62999.582425 2222.165259 25803.697831 2449.374601 7468.730207 16172 4969.014538
0.035000 0.035469 46010.120039 636.455113 18925.838502 1741.329549 4855.305276 31764 4969.014538
0.045000 0.045378 37259.816029 883.920143 17834.629175 1472.861305 11891.310508 52164 4969.014538
0.055000 0.055280 31401.135550 219.907701 12962.442921 514.220411 2780.078587 77396 4969.014538
0.065000 0.065232 28338.673117 437.225904 13063.016572 408.826074 389.351479 108936 4969.014538
0.075000 0.075229 24348.022554 360.767500 9651.964932 234.367918 -1001.144263 144980 4969.014538
0.085000 0.085193 19971.280344 270.442897 7787.117446 461.079835 158.946816 184854 4969.014538
0.095000 0.095166 16567.291733 237.302356 6602.235805 385.735269 597.444253 232260 4969.014538
0.105000 0.105155 14425.147134 155.708102 4731.693820 105.599072 211.794908 282884 4969.014538
0.115000 0.115131 13143.409925 132.905501 4438.010244 57.053478 550.060913 339084 4969.014538
0.125000 0.125124 12000.018679 141.184337 4202.565162 143.653689 600.394795 401864 4969.014538
0.135000 0.135125 10780.468829 78.274355 3411.347320 165.099437 554.210269 468084 4969.014538
0.145000 0.145120 9787.866421 143.685249 3331.982939 -17.379010 983.086850 539940 4969.014538
0.155000 0.155118 8594.944765 98.757023 2606.806154 167.462759 -120.337544 617324 4969.014538
0.165000 0.165105 7768.733569 85.778865 1934.195498 18.662995 73.741861 697452 4969.014538
0.175000 0.175088 7127.552101 82.215874 1867.951821 48.590417 549.195927 785846 4969.014538
0.185000 0.185089 6721.368209 69.998977 1839.576561 46.614682 578.989850 879528 4969.014538
0.195000 0.195093 6239.142104 67.618503 1525.425039 45.967834 381.571799 976596 4969.014538
0.205000 0.205084 5819.621196 85.209096 1464.529824 -16.536047 94.138844 1077212 4969.014538
0.215000 0.215076 5291.315773 61.527770 1121.429727 81.492216 458.265466 1186908 4969.014538
0.225000 0.225076 4880.437013 69.895364 1030.900014 -2.223541 -2.245018 1299452 4969.014538
0.235000 0.235073 4545.537731 53.411231 768.059701 40.784322 109.172929 1417356 4969.014538
0.245000 0.245067 4297.796684 56.390613 656.605171 32.744973 224.694910 1539600 4969.014538
0.255000 0.255064 4034.968909 61.885486 438.716601 -14.408610 -31.542328 1669820 4969.014538
0.265000 0.265061 3774.359157 54.531023 463.839151 38.026116 121.623454 1801086 4969.014538
0.275000 0.275060 3533.118963 61.092894 233.699167 5.218791 127.273326 1942244 4969.014538
0.285000 0.285062 3368.011148 57.943972 279.493907 8.539025 239.692287 2084796 4969.014538
0.295000 0.295057 3169.285120 49.477895 206.203106 18.481622 221.614857 2231868 4969.014538
