#Data file /home/DATA/sbrieden/Patchy_dr12_mocks/prerecon/original/Patchy-Mocks-DR12CMASS-S-V6C-Portsmouth-mass_0053.dat
#Random file /home/DATA/sbrieden/Patchy_dr12_mocks/prerecon/original/Random-DR12CMASS-S-V6C-x20.dat
#Number of data elements used: 217618
#Number of random elements used: 4288842
#Effective number of data elements weighted by wcol: 217618.000000
#Effective number of random elements weighted by wcol: 4288842.000000
#Effective number of data elements weighted by wcol*wsys: 217618.000000
#Effective number of random elements weighted by wcol*wsys: 4288842.000000
#Effective redshift value from data 0.597451
#Effective redshift value from randoms 0.597190
#Size of the Box 3700.000000 Mpc/h
#Area of the survey used 2525.000000 deg^2
#Value of alpha: 0.050881
#Normalization using data file
#Normalization using density
#Normalization 4.141640
#Shot noise factor 1.000000
#Shot noise value 4942.500099
#Type of Computation: FFT
#Number of grid cells: 512
#Type of Mass Assigment: TSC
#Type of Yamamoto: GridCenter
#Number of Interlacing steps: 2
#Grid Correction: yes
#Value of Om=0.310000
#Quadrupole as L2
#Octopole as L3
#Hexadecapole as L2L2
#k-centerbin	 k-eff	 Monopole-Pshotnoise	 Dipole	 Quadrupole	 Octopole	 Hexadecapole	 number of modes	 Pshotnoise
0.005000 0.007485 49163.878789 -1370.418852 10970.547010 4773.006920 5215.900295 846 4942.500099
0.015000 0.016072 54530.573146 127.163649 5564.859976 2406.937196 25177.136757 6012 4942.500099
0.025000 0.025646 56560.133494 516.529643 17143.698216 -327.459472 -6111.499504 16172 4942.500099
0.035000 0.035469 47147.319262 1214.009569 22272.096118 897.045215 3630.249270 31764 4942.500099
0.045000 0.045378 36343.413130 648.096774 16530.050043 1279.704895 -5905.046168 52164 4942.500099
0.055000 0.055280 31678.852868 356.452384 10301.697229 315.323570 628.605383 77396 4942.500099
0.065000 0.065232 28497.658285 311.791177 11643.345307 654.281077 338.003875 108936 4942.500099
0.075000 0.075229 23964.812691 420.523315 8320.871235 392.340069 610.722448 144980 4942.500099
0.085000 0.085193 20117.608625 150.726040 6703.260110 432.523409 2345.435466 184854 4942.500099
0.095000 0.095166 17266.087877 338.142011 6002.904700 -13.975180 -230.982977 232260 4942.500099
0.105000 0.105155 14163.367998 196.354023 4338.785112 208.553338 -262.225658 282884 4942.500099
0.115000 0.115131 12865.341592 103.140938 4179.948248 91.810216 -868.170043 339084 4942.500099
0.125000 0.125124 11725.032474 108.708696 2942.957996 181.170227 363.073664 401864 4942.500099
0.135000 0.135125 10577.570512 137.120008 3463.942005 -42.676554 81.869018 468084 4942.500099
0.145000 0.145120 9434.461685 107.272852 2634.304593 47.360282 -124.743048 539940 4942.500099
0.155000 0.155118 8516.175674 97.594042 2827.077251 103.603089 106.663635 617324 4942.500099
0.165000 0.165105 7798.269918 79.440934 2502.497957 74.880511 568.984277 697452 4942.500099
0.175000 0.175088 7362.163882 77.330878 1967.206124 36.456468 -384.526683 785846 4942.500099
0.185000 0.185089 6691.087534 77.258710 1767.472809 89.523912 296.257524 879528 4942.500099
0.195000 0.195093 6052.564078 76.884307 1315.786898 51.817673 252.890820 976596 4942.500099
0.205000 0.205084 5784.313748 70.116482 1313.706954 -29.707259 160.671609 1077212 4942.500099
0.215000 0.215076 5264.920434 83.781832 1193.998129 45.938898 579.484424 1186908 4942.500099
0.225000 0.225076 4796.160833 46.150893 931.988098 50.550771 504.812593 1299452 4942.500099
0.235000 0.235073 4437.077287 63.729032 885.716180 -35.154120 -166.030683 1417356 4942.500099
0.245000 0.245067 4250.792240 60.136714 799.997555 29.259793 -161.505386 1539600 4942.500099
0.255000 0.255064 4067.554383 56.415577 479.559089 40.119915 -67.772979 1669820 4942.500099
0.265000 0.265061 3777.428821 46.859387 306.287319 21.529363 277.242188 1801086 4942.500099
0.275000 0.275060 3597.031941 58.739336 576.111553 5.736365 180.725074 1942244 4942.500099
0.285000 0.285062 3280.842237 58.828812 382.122897 33.190953 219.064674 2084796 4942.500099
0.295000 0.295057 3189.125602 51.786250 125.872087 -9.650950 181.489839 2231868 4942.500099
