#Data file /home/DATA/sbrieden/Patchy_dr12_mocks/prerecon/original/Patchy-Mocks-DR12LOWZ-S-V5C-Portsmouth-mass_0067.dat
#Random file /home/DATA/sbrieden/Patchy_dr12_mocks/prerecon/original/Random-DR12LOWZ-S-V5C-x20.dat
#Number of data elements used: 99771
#Number of random elements used: 2007904
#Effective number of data elements weighted by wcol: 99771.000000
#Effective number of random elements weighted by wcol: 2007904.000000
#Effective number of data elements weighted by wcol*wsys: 99771.000000
#Effective number of random elements weighted by wcol*wsys: 2007904.000000
#Effective redshift value from data 0.330585
#Effective redshift value from randoms 0.330155
#Size of the Box 2500.000000 Mpc/h
#Area of the survey used 2501.000000 deg^2
#Value of alpha: 0.049837
#Normalization using data file
#Normalization using density
#Normalization 1.853846
#Shot noise factor 1.000000
#Shot noise value 3666.803133
#Type of Computation: FFT
#Number of grid cells: 512
#Type of Mass Assigment: TSC
#Type of Yamamoto: GridCenter
#Number of Interlacing steps: 2
#Grid Correction: yes
#Value of Om=0.310000
#Quadrupole as L2
#Octopole as L3
#Hexadecapole as L2L2
#k-centerbin	 k-eff	 Monopole-Pshotnoise	 Dipole	 Quadrupole	 Octopole	 Hexadecapole	 number of modes	 Pshotnoise
0.005000 0.007385 73172.850587 -21848.711908 -53183.337307 -32.634020 -8471.815107 250 3666.803133
0.015000 0.016012 87963.889125 7824.040459 29487.728868 10613.920896 63546.812797 1852 3666.803133
0.025000 0.025646 68447.115793 2383.130735 42198.456876 3027.010289 2175.589805 5020 3666.803133
0.035000 0.035469 50878.162713 1826.067132 25702.077641 8535.012372 7466.118200 9756 3666.803133
0.045000 0.045368 43363.967918 1074.904954 7880.575736 -753.037270 427.694654 16108 3666.803133
0.055000 0.055314 33238.775849 899.331916 16246.128759 1051.586342 9422.529283 24064 3666.803133
0.065000 0.065258 31112.584511 194.406813 13233.105799 155.692908 -22.622594 33396 3666.803133
0.075000 0.075209 26281.978186 978.134606 7969.885379 351.500619 -2083.752830 44596 3666.803133
0.085000 0.085175 21887.494506 317.638166 8113.227782 847.032174 452.207439 57124 3666.803133
0.095000 0.095157 17829.111658 629.667341 6203.825561 512.981097 1664.957032 71620 3666.803133
0.105000 0.105162 15325.030061 136.567189 5287.479970 590.857279 1058.720634 87552 3666.803133
0.115000 0.115148 14180.911652 231.412728 3194.418341 415.654429 2349.430165 104524 3666.803133
0.125000 0.125146 12202.349103 224.162808 3215.292935 -124.799305 2307.097565 124228 3666.803133
0.135000 0.135146 11050.416134 143.272311 2438.582612 121.736439 1117.034951 144204 3666.803133
0.145000 0.145132 10379.605766 118.822427 2704.086383 20.347845 1098.335461 166492 3666.803133
0.155000 0.155114 9236.904914 175.483794 2693.224986 63.012105 -462.289155 189964 3666.803133
0.165000 0.165102 8360.383455 91.241115 1577.260920 95.824636 -27.576952 215640 3666.803133
0.175000 0.175105 7774.809198 106.756497 1853.659945 149.914507 235.422731 242836 3666.803133
0.185000 0.185097 7060.298070 119.472576 1252.803455 83.739598 664.734595 270556 3666.803133
0.195000 0.195085 6530.167812 64.992556 1487.102899 -50.876162 484.917806 301084 3666.803133
0.205000 0.205080 6226.542802 90.545718 1281.158667 -41.171929 -554.695197 332628 3666.803133
0.215000 0.215092 5650.552425 81.104076 1274.102314 143.119560 -9.912852 367216 3666.803133
0.225000 0.225099 5284.318718 45.770955 861.076956 98.369179 218.917612 400444 3666.803133
0.235000 0.235081 4983.992070 102.141184 541.285677 -35.320623 -266.485969 436500 3666.803133
0.245000 0.245077 4506.981761 26.993411 583.280796 6.998053 6.346979 475900 3666.803133
0.255000 0.255082 4347.049133 77.431279 501.383684 -18.905108 56.643831 514900 3666.803133
0.265000 0.265074 3889.038502 69.610786 502.316598 94.968685 -99.203512 555408 3666.803133
0.275000 0.275066 3771.575830 47.214215 430.729675 -19.587824 268.834505 598684 3666.803133
0.285000 0.285066 3527.044058 51.905157 127.518669 69.642978 161.205255 643228 3666.803133
0.295000 0.295058 3356.169254 39.388366 -39.492222 -26.361756 247.242343 688036 3666.803133
