#Data file /home/DATA/sbrieden/Patchy_dr12_mocks/prerecon/original/Patchy-Mocks-DR12LOWZ-N-V5C-Portsmouth-mass_0015.dat
#Random file /home/DATA/sbrieden/Patchy_dr12_mocks/prerecon/original/Random-DR12LOWZ-N-V5C-x20.dat
#Number of data elements used: 236222
#Number of random elements used: 4685323
#Effective number of data elements weighted by wcol: 236222.000000
#Effective number of random elements weighted by wcol: 4685323.000000
#Effective number of data elements weighted by wcol*wsys: 236222.000000
#Effective number of random elements weighted by wcol*wsys: 4685323.000000
#Effective redshift value from data 0.330119
#Effective redshift value from randoms 0.330058
#Size of the Box 2500.000000 Mpc/h
#Area of the survey used 5826.000000 deg^2
#Value of alpha: 0.050417
#Normalization using data file
#Normalization using density
#Normalization 4.379884
#Shot noise factor 1.000000
#Shot noise value 3656.321759
#Type of Computation: FFT
#Number of grid cells: 512
#Type of Mass Assigment: TSC
#Type of Yamamoto: GridCenter
#Number of Interlacing steps: 2
#Grid Correction: yes
#Value of Om=0.310000
#Quadrupole as L2
#Octopole as L3
#Hexadecapole as L2L2
#k-centerbin	 k-eff	 Monopole-Pshotnoise	 Dipole	 Quadrupole	 Octopole	 Hexadecapole	 number of modes	 Pshotnoise
0.005000 0.007385 33928.581097 -12816.278600 -8374.232146 -6289.178762 4218.050381 250 3656.321759
0.015000 0.016012 66074.492810 -49.776723 8147.924803 -7966.247541 -49954.185867 1852 3656.321759
0.025000 0.025646 57471.851655 2357.208746 12184.161672 -579.886215 353.696961 5020 3656.321759
0.035000 0.035469 49347.361680 391.940904 18296.582384 2369.365907 4997.452430 9756 3656.321759
0.045000 0.045368 43065.679046 1916.667500 16935.475789 1254.720007 -1709.787221 16108 3656.321759
0.055000 0.055314 33907.152441 937.593944 18547.441171 1122.161173 4693.240752 24064 3656.321759
0.065000 0.065258 30324.564924 303.353864 14450.174962 1131.154077 1602.279027 33396 3656.321759
0.075000 0.075209 25622.517072 796.452927 11156.147813 2067.456612 1597.286438 44596 3656.321759
0.085000 0.085175 21118.153664 437.011539 6894.771223 72.139854 411.814850 57124 3656.321759
0.095000 0.095157 17822.861054 339.815179 5016.557950 233.797869 512.099654 71620 3656.321759
0.105000 0.105162 15616.214722 178.320741 5079.359070 382.193436 1721.901969 87552 3656.321759
0.115000 0.115148 14005.633429 248.616628 3159.929843 171.026097 -1301.514980 104524 3656.321759
0.125000 0.125146 12580.411704 240.435567 3506.785166 111.252726 -150.274847 124228 3656.321759
0.135000 0.135146 11253.811637 145.420511 2553.462188 99.455678 957.986022 144204 3656.321759
0.145000 0.145132 10150.941070 208.981236 2844.716845 37.034694 13.189900 166492 3656.321759
0.155000 0.155114 9025.472762 153.666197 2519.111317 202.015518 -239.552151 189964 3656.321759
0.165000 0.165102 8160.589903 60.942420 1633.377619 91.043651 4.506542 215640 3656.321759
0.175000 0.175105 7498.425155 127.407598 1797.986019 132.398191 535.470023 242836 3656.321759
0.185000 0.185097 6918.720262 79.770867 1642.727555 -40.564904 357.104974 270556 3656.321759
0.195000 0.195085 6699.742457 72.696494 1467.179900 134.781013 -121.884705 301084 3656.321759
0.205000 0.205080 6026.315922 97.595300 1308.053835 11.259219 673.458937 332628 3656.321759
0.215000 0.215092 5518.668250 99.267028 1190.093652 29.922258 6.675825 367216 3656.321759
0.225000 0.225099 5026.331242 56.563996 886.322603 42.255496 370.063724 400444 3656.321759
0.235000 0.235081 4876.062165 59.512730 718.283002 4.739966 216.646470 436500 3656.321759
0.245000 0.245077 4528.230279 57.705576 573.546777 69.269442 231.171006 475900 3656.321759
0.255000 0.255082 4221.545857 64.056008 596.935072 -3.730337 114.112765 514900 3656.321759
0.265000 0.265074 4032.366119 52.863897 404.854804 22.552359 15.776944 555408 3656.321759
0.275000 0.275066 3820.734363 69.937097 214.454135 19.024264 310.948116 598684 3656.321759
0.285000 0.285066 3447.211230 34.461158 253.200142 49.618137 232.904287 643228 3656.321759
0.295000 0.295058 3309.880116 59.412160 67.581414 15.788591 208.884256 688036 3656.321759
