#Data file /home/DATA/sbrieden/Patchy_dr12_mocks/prerecon/original/Patchy-Mocks-DR12LOWZ-S-V5C-Portsmouth-mass_0015.dat
#Random file /home/DATA/sbrieden/Patchy_dr12_mocks/prerecon/original/Random-DR12LOWZ-S-V5C-x20.dat
#Number of data elements used: 101957
#Number of random elements used: 2007904
#Effective number of data elements weighted by wcol: 101957.000000
#Effective number of random elements weighted by wcol: 2007904.000000
#Effective number of data elements weighted by wcol*wsys: 101957.000000
#Effective number of random elements weighted by wcol*wsys: 2007904.000000
#Effective redshift value from data 0.330310
#Effective redshift value from randoms 0.330155
#Size of the Box 2500.000000 Mpc/h
#Area of the survey used 2501.000000 deg^2
#Value of alpha: 0.050786
#Normalization using data file
#Normalization using density
#Normalization 1.890451
#Shot noise factor 1.000000
#Shot noise value 3660.693230
#Type of Computation: FFT
#Number of grid cells: 512
#Type of Mass Assigment: TSC
#Type of Yamamoto: GridCenter
#Number of Interlacing steps: 2
#Grid Correction: yes
#Value of Om=0.310000
#Quadrupole as L2
#Octopole as L3
#Hexadecapole as L2L2
#k-centerbin	 k-eff	 Monopole-Pshotnoise	 Dipole	 Quadrupole	 Octopole	 Hexadecapole	 number of modes	 Pshotnoise
0.005000 0.007385 32318.816904 -7956.125465 -21422.812365 -16763.426582 4604.888127 250 3660.693230
0.015000 0.016012 55793.698736 1010.168945 36579.562577 -9072.584888 -14612.123584 1852 3660.693230
0.025000 0.025646 63036.052632 3907.817976 67457.233958 17571.123232 4209.213133 5020 3660.693230
0.035000 0.035469 46043.609852 381.775111 23023.480796 6642.458566 24610.225363 9756 3660.693230
0.045000 0.045368 36934.999059 1649.814442 10263.673694 -648.036833 41.799346 16108 3660.693230
0.055000 0.055314 32341.283682 442.857744 17572.341540 1619.066507 2054.654027 24064 3660.693230
0.065000 0.065258 29551.622277 473.678986 12468.226830 1616.187096 5815.461332 33396 3660.693230
0.075000 0.075209 26565.855065 235.666522 5431.215393 187.015848 -2375.357670 44596 3660.693230
0.085000 0.085175 24262.323913 643.524499 5636.117597 386.074167 791.089918 57124 3660.693230
0.095000 0.095157 18070.614697 507.790586 3990.207242 -266.471271 -4377.973675 71620 3660.693230
0.105000 0.105162 16252.824674 332.795333 4596.262702 546.487341 -28.317222 87552 3660.693230
0.115000 0.115148 14120.348530 141.194771 4027.780333 284.865294 865.414716 104524 3660.693230
0.125000 0.125146 12782.198449 173.021249 3898.897921 -16.587337 165.112718 124228 3660.693230
0.135000 0.135146 11927.410150 229.043939 2839.040251 303.664356 -62.901225 144204 3660.693230
0.145000 0.145132 10441.099206 187.771389 2429.154893 9.288473 873.213377 166492 3660.693230
0.155000 0.155114 9359.170734 108.444270 2440.912808 110.385546 710.560803 189964 3660.693230
0.165000 0.165102 8459.331095 191.653906 2511.524444 137.500603 691.069246 215640 3660.693230
0.175000 0.175105 7946.719681 26.192747 1893.161700 78.060346 1302.098594 242836 3660.693230
0.185000 0.185097 7468.323702 71.788567 1575.083129 44.648468 7.148796 270556 3660.693230
0.195000 0.195085 6933.956772 115.077906 1183.866303 150.264976 -396.574356 301084 3660.693230
0.205000 0.205080 6402.904828 85.110595 708.640662 46.155109 121.794974 332628 3660.693230
0.215000 0.215092 5686.437340 87.584401 940.112741 -31.217010 540.466964 367216 3660.693230
0.225000 0.225099 5330.836081 118.067432 715.789969 -38.864104 318.299956 400444 3660.693230
0.235000 0.235081 4884.699760 44.509703 714.060306 152.611821 282.560938 436500 3660.693230
0.245000 0.245077 4602.490827 65.561110 409.732760 -43.963137 455.387806 475900 3660.693230
0.255000 0.255082 4327.798445 44.370822 709.009694 30.748929 56.320391 514900 3660.693230
0.265000 0.265074 3997.158081 68.024743 253.008597 25.901097 255.003111 555408 3660.693230
0.275000 0.275066 3836.334251 59.053802 391.944102 60.678968 243.681223 598684 3660.693230
0.285000 0.285066 3553.899430 53.690130 267.252833 31.742727 553.416724 643228 3660.693230
0.295000 0.295058 3407.249620 39.941870 203.680166 -56.905150 408.866567 688036 3660.693230
