#Data file /home/DATA/sbrieden/Patchy_dr12_mocks/prerecon/original/Patchy-Mocks-DR12LOWZ-S-V5C-Portsmouth-mass_0070.dat
#Random file /home/DATA/sbrieden/Patchy_dr12_mocks/prerecon/original/Random-DR12LOWZ-S-V5C-x20.dat
#Number of data elements used: 102186
#Number of random elements used: 2007904
#Effective number of data elements weighted by wcol: 102186.000000
#Effective number of random elements weighted by wcol: 2007904.000000
#Effective number of data elements weighted by wcol*wsys: 102186.000000
#Effective number of random elements weighted by wcol*wsys: 2007904.000000
#Effective redshift value from data 0.330358
#Effective redshift value from randoms 0.330155
#Size of the Box 2500.000000 Mpc/h
#Area of the survey used 2501.000000 deg^2
#Value of alpha: 0.050933
#Normalization using data file
#Normalization using density
#Normalization 1.895669
#Shot noise factor 1.000000
#Shot noise value 3663.082514
#Type of Computation: FFT
#Number of grid cells: 512
#Type of Mass Assigment: TSC
#Type of Yamamoto: GridCenter
#Number of Interlacing steps: 2
#Grid Correction: yes
#Value of Om=0.310000
#Quadrupole as L2
#Octopole as L3
#Hexadecapole as L2L2
#k-centerbin	 k-eff	 Monopole-Pshotnoise	 Dipole	 Quadrupole	 Octopole	 Hexadecapole	 number of modes	 Pshotnoise
0.005000 0.007385 43905.001859 -8011.179137 34816.812311 -15715.590397 -28258.498803 250 3663.082514
0.015000 0.016012 82714.459296 442.895829 29369.893312 -3736.156583 -86256.729828 1852 3663.082514
0.025000 0.025646 65610.247412 3639.354471 30059.864753 171.071239 1035.613892 5020 3663.082514
0.035000 0.035469 55343.031090 923.445680 27707.977407 9789.379688 19044.807822 9756 3663.082514
0.045000 0.045368 46041.325719 1460.626494 7965.937111 871.221789 5844.066340 16108 3663.082514
0.055000 0.055314 34672.276428 1369.530512 14437.849798 -3070.004256 -2682.222765 24064 3663.082514
0.065000 0.065258 30983.869995 721.693984 18461.516275 3784.337267 -2465.036464 33396 3663.082514
0.075000 0.075209 25398.648301 439.250342 10667.451593 319.814181 4235.098254 44596 3663.082514
0.085000 0.085175 22109.148079 397.321559 6669.355237 1089.482355 264.709060 57124 3663.082514
0.095000 0.095157 18665.362254 428.879460 5132.017322 -152.947433 -657.148255 71620 3663.082514
0.105000 0.105162 16131.714328 341.912830 5501.819257 178.379899 867.107580 87552 3663.082514
0.115000 0.115148 14313.077294 201.705815 3630.635892 558.877671 -1645.001212 104524 3663.082514
0.125000 0.125146 13281.732427 94.391214 2862.368631 138.202281 -313.311791 124228 3663.082514
0.135000 0.135146 11670.567165 327.672893 3362.476090 -154.278712 -455.695813 144204 3663.082514
0.145000 0.145132 10304.910778 137.869781 3291.456805 328.045096 383.748205 166492 3663.082514
0.155000 0.155114 9587.148113 110.106214 2663.368317 55.462853 1272.118459 189964 3663.082514
0.165000 0.165102 8706.843811 149.458039 2474.236966 54.372442 -701.099679 215640 3663.082514
0.175000 0.175105 7852.128787 91.915843 2207.981015 84.780252 699.480461 242836 3663.082514
0.185000 0.185097 7051.131987 132.936449 2357.903584 77.553189 82.470078 270556 3663.082514
0.195000 0.195085 6551.514037 26.792872 1456.208523 202.993262 639.118965 301084 3663.082514
0.205000 0.205080 6196.727549 139.256861 1146.825828 -62.025009 442.757687 332628 3663.082514
0.215000 0.215092 5658.426393 84.580525 1400.644114 18.932250 -543.325749 367216 3663.082514
0.225000 0.225099 5235.827769 38.836171 1068.886310 165.884406 421.287152 400444 3663.082514
0.235000 0.235081 5098.818170 78.256091 860.343505 20.501879 471.216612 436500 3663.082514
0.245000 0.245077 4654.793142 59.408692 411.161113 32.709083 62.232487 475900 3663.082514
0.255000 0.255082 4218.536389 81.818277 428.767401 -49.586876 23.230742 514900 3663.082514
0.265000 0.265074 3920.286484 51.537968 657.857854 69.033027 -19.977019 555408 3663.082514
0.275000 0.275066 3708.158852 55.760096 428.839297 -4.351974 146.418181 598684 3663.082514
0.285000 0.285066 3421.343027 46.516284 263.629055 50.232088 50.787778 643228 3663.082514
0.295000 0.295058 3247.709715 67.111278 209.380126 -21.022146 369.766742 688036 3663.082514
