#Data file /home/DATA/sbrieden/Patchy_dr12_mocks/prerecon/original/Patchy-Mocks-DR12LOWZ-S-V5C-Portsmouth-mass_0084.dat
#Random file /home/DATA/sbrieden/Patchy_dr12_mocks/prerecon/original/Random-DR12LOWZ-S-V5C-x20.dat
#Number of data elements used: 98549
#Number of random elements used: 2007904
#Effective number of data elements weighted by wcol: 98549.000000
#Effective number of random elements weighted by wcol: 2007904.000000
#Effective number of data elements weighted by wcol*wsys: 98549.000000
#Effective number of random elements weighted by wcol*wsys: 2007904.000000
#Effective redshift value from data 0.330018
#Effective redshift value from randoms 0.330155
#Size of the Box 2500.000000 Mpc/h
#Area of the survey used 2501.000000 deg^2
#Value of alpha: 0.049095
#Normalization using data file
#Normalization using density
#Normalization 1.827587
#Shot noise factor 1.000000
#Shot noise value 3654.148472
#Type of Computation: FFT
#Number of grid cells: 512
#Type of Mass Assigment: TSC
#Type of Yamamoto: GridCenter
#Number of Interlacing steps: 2
#Grid Correction: yes
#Value of Om=0.310000
#Quadrupole as L2
#Octopole as L3
#Hexadecapole as L2L2
#k-centerbin	 k-eff	 Monopole-Pshotnoise	 Dipole	 Quadrupole	 Octopole	 Hexadecapole	 number of modes	 Pshotnoise
0.005000 0.007385 42445.033268 -3671.567709 -17819.378843 -10215.402124 -18342.060440 250 3654.148472
0.015000 0.016012 51941.405598 -25.419861 22853.736412 -1056.709010 11883.437735 1852 3654.148472
0.025000 0.025646 67581.565925 2390.749017 34635.516192 7126.737314 -9876.612572 5020 3654.148472
0.035000 0.035469 50894.842361 931.340787 19643.477806 2274.902132 259.736965 9756 3654.148472
0.045000 0.045368 37327.713975 1672.054367 10338.858516 -547.092922 -14503.196130 16108 3654.148472
0.055000 0.055314 31563.160648 -20.188344 9512.445160 1869.530178 4358.301377 24064 3654.148472
0.065000 0.065258 29278.679897 591.191750 8107.749822 158.008259 2884.198398 33396 3654.148472
0.075000 0.075209 24791.953056 793.074055 3465.821235 635.322613 -1328.209620 44596 3654.148472
0.085000 0.085175 21027.873854 540.753649 10787.534183 149.530984 7489.768733 57124 3654.148472
0.095000 0.095157 17962.838636 202.434482 6935.977734 486.575046 -3408.879510 71620 3654.148472
0.105000 0.105162 15439.220792 371.146670 3890.783215 405.045965 -156.869821 87552 3654.148472
0.115000 0.115148 13214.039921 217.392327 2794.428976 393.490865 182.907522 104524 3654.148472
0.125000 0.125146 12083.077918 175.563569 3077.456298 -109.002583 522.645724 124228 3654.148472
0.135000 0.135146 11145.599074 91.457229 2645.246234 215.539345 1710.513138 144204 3654.148472
0.145000 0.145132 10372.215173 193.955462 1870.119472 139.326980 1287.761893 166492 3654.148472
0.155000 0.155114 8905.301392 184.028913 2034.204498 -59.139925 142.086649 189964 3654.148472
0.165000 0.165102 8027.662524 121.984258 2070.318067 189.764164 249.701248 215640 3654.148472
0.175000 0.175105 7330.518452 96.787733 1407.251523 -18.462366 336.462668 242836 3654.148472
0.185000 0.185097 6822.419374 81.996574 1319.010232 -57.360858 -213.948254 270556 3654.148472
0.195000 0.195085 6166.142352 76.786449 1302.712173 140.320101 122.409740 301084 3654.148472
0.205000 0.205080 5960.396091 64.131969 1010.181844 110.592205 20.621901 332628 3654.148472
0.215000 0.215092 5705.048301 63.764186 1285.060371 -34.813669 1038.535873 367216 3654.148472
0.225000 0.225099 5196.844789 107.319299 1041.159004 48.065510 189.836085 400444 3654.148472
0.235000 0.235081 4745.822243 53.260460 799.940591 75.070910 711.467959 436500 3654.148472
0.245000 0.245077 4439.618085 74.064827 516.222014 0.121501 457.842956 475900 3654.148472
0.255000 0.255082 4138.417689 58.156731 636.398940 17.891584 203.740118 514900 3654.148472
0.265000 0.265074 3981.983795 44.500945 325.644740 51.249000 462.790056 555408 3654.148472
0.275000 0.275066 3694.866048 54.736348 530.300850 -6.442718 300.430877 598684 3654.148472
0.285000 0.285066 3500.127993 65.236404 307.657344 -9.713921 12.988000 643228 3654.148472
0.295000 0.295058 3236.987737 30.832219 418.414447 69.315240 285.404872 688036 3654.148472
