#Data file /home/DATA/sbrieden/Patchy_dr12_mocks/prerecon/original/Patchy-Mocks-DR12CMASS-S-V6C-Portsmouth-mass_0075.dat
#Random file /home/DATA/sbrieden/Patchy_dr12_mocks/prerecon/original/Random-DR12CMASS-S-V6C-x20.dat
#Number of data elements used: 216344
#Number of random elements used: 4288842
#Effective number of data elements weighted by wcol: 216344.000000
#Effective number of random elements weighted by wcol: 4288842.000000
#Effective number of data elements weighted by wcol*wsys: 216344.000000
#Effective number of random elements weighted by wcol*wsys: 4288842.000000
#Effective redshift value from data 0.597399
#Effective redshift value from randoms 0.597190
#Size of the Box 3700.000000 Mpc/h
#Area of the survey used 2525.000000 deg^2
#Value of alpha: 0.050446
#Normalization using data file
#Normalization using density
#Normalization 4.107084
#Shot noise factor 1.000000
#Shot noise value 4937.563223
#Type of Computation: FFT
#Number of grid cells: 512
#Type of Mass Assigment: TSC
#Type of Yamamoto: GridCenter
#Number of Interlacing steps: 2
#Grid Correction: yes
#Value of Om=0.310000
#Quadrupole as L2
#Octopole as L3
#Hexadecapole as L2L2
#k-centerbin	 k-eff	 Monopole-Pshotnoise	 Dipole	 Quadrupole	 Octopole	 Hexadecapole	 number of modes	 Pshotnoise
0.005000 0.007485 57989.346666 4878.034359 -23550.901403 -17345.709833 -26039.416653 846 4937.563223
0.015000 0.016072 54407.307083 -2496.954016 -27779.226902 -4892.961744 6147.919289 6012 4937.563223
0.025000 0.025646 58434.826131 1977.291490 27242.983875 1142.740456 7107.900935 16172 4937.563223
0.035000 0.035469 44835.099032 967.283962 32568.838876 2848.870216 16214.501303 31764 4937.563223
0.045000 0.045378 34903.479754 445.463897 13154.838598 1531.371948 2761.849347 52164 4937.563223
0.055000 0.055280 31119.174834 248.103081 8511.961598 -285.308413 -5430.095008 77396 4937.563223
0.065000 0.065232 26931.304202 498.568974 13350.370886 985.995389 -2131.325760 108936 4937.563223
0.075000 0.075229 23350.833547 248.058723 10217.526478 -144.187623 407.589653 144980 4937.563223
0.085000 0.085193 19924.597573 325.356724 8805.702383 564.505498 1614.052631 184854 4937.563223
0.095000 0.095166 16556.123904 249.764051 6863.272404 335.626729 1354.118375 232260 4937.563223
0.105000 0.105155 14177.130394 159.578878 5799.793164 113.945612 1532.805986 282884 4937.563223
0.115000 0.115131 13037.078099 147.330655 4523.741923 95.069257 94.216201 339084 4937.563223
0.125000 0.125124 11989.139871 78.457396 3896.325995 171.072725 1356.907329 401864 4937.563223
0.135000 0.135125 10939.653153 145.897987 3714.786128 70.641099 854.868545 468084 4937.563223
0.145000 0.145120 9600.555641 110.818970 3557.198442 39.506678 -106.255380 539940 4937.563223
0.155000 0.155118 8580.443800 112.587131 3004.891011 83.563067 -86.943406 617324 4937.563223
0.165000 0.165105 7651.421345 95.057123 2415.772843 114.235566 68.552429 697452 4937.563223
0.175000 0.175088 6979.569560 64.293971 2349.679918 52.135020 318.827658 785846 4937.563223
0.185000 0.185089 6461.379519 81.633882 1752.521357 43.300257 139.087555 879528 4937.563223
0.195000 0.195093 5979.048987 60.716370 1231.814322 54.376078 181.910385 976596 4937.563223
0.205000 0.205084 5773.975424 49.677278 1187.227058 34.332425 321.725153 1077212 4937.563223
0.215000 0.215076 5318.349090 72.175409 1094.733287 45.761982 217.430014 1186908 4937.563223
0.225000 0.225076 4838.732769 89.341442 1135.617277 -17.670777 596.373480 1299452 4937.563223
0.235000 0.235073 4583.137322 43.182858 896.088602 35.427248 271.555931 1417356 4937.563223
0.245000 0.245067 4281.964877 65.432462 801.288398 24.881845 258.330916 1539600 4937.563223
0.255000 0.255064 3982.784337 59.337502 839.663823 7.709920 389.464625 1669820 4937.563223
0.265000 0.265061 3615.653949 51.116809 486.753592 51.944937 164.922170 1801086 4937.563223
0.275000 0.275060 3482.631350 56.212669 447.112438 -4.107159 305.149167 1942244 4937.563223
0.285000 0.285062 3367.374405 55.122378 517.234467 -1.544280 285.581168 2084796 4937.563223
0.295000 0.295057 3158.692100 56.704439 266.688276 31.895475 223.572981 2231868 4937.563223
