#Data file /home/DATA/sbrieden/Patchy_dr12_mocks/prerecon/original/Patchy-Mocks-DR12CMASS-S-V6C-Portsmouth-mass_0097.dat
#Random file /home/DATA/sbrieden/Patchy_dr12_mocks/prerecon/original/Random-DR12CMASS-S-V6C-x20.dat
#Number of data elements used: 215428
#Number of random elements used: 4288842
#Effective number of data elements weighted by wcol: 215428.000000
#Effective number of random elements weighted by wcol: 4288842.000000
#Effective number of data elements weighted by wcol*wsys: 215428.000000
#Effective number of random elements weighted by wcol*wsys: 4288842.000000
#Effective redshift value from data 0.598022
#Effective redshift value from randoms 0.597190
#Size of the Box 3700.000000 Mpc/h
#Area of the survey used 2525.000000 deg^2
#Value of alpha: 0.050488
#Normalization using data file
#Normalization using density
#Normalization 4.099699
#Shot noise factor 1.000000
#Shot noise value 4977.034366
#Type of Computation: FFT
#Number of grid cells: 512
#Type of Mass Assigment: TSC
#Type of Yamamoto: GridCenter
#Number of Interlacing steps: 2
#Grid Correction: yes
#Value of Om=0.310000
#Quadrupole as L2
#Octopole as L3
#Hexadecapole as L2L2
#k-centerbin	 k-eff	 Monopole-Pshotnoise	 Dipole	 Quadrupole	 Octopole	 Hexadecapole	 number of modes	 Pshotnoise
0.005000 0.007485 53635.227177 -2279.368262 27448.373529 -574.067154 -11879.950883 846 4977.034366
0.015000 0.016072 75843.300978 1188.077414 38270.852417 8112.064813 17168.125765 6012 4977.034366
0.025000 0.025646 59966.158879 1161.507857 24246.236780 4688.348628 25470.886671 16172 4977.034366
0.035000 0.035469 44808.792315 1222.909356 15132.865162 -266.332935 5279.678649 31764 4977.034366
0.045000 0.045378 37858.994077 631.227942 20546.123034 2228.760503 12144.151587 52164 4977.034366
0.055000 0.055280 30491.213185 324.634031 11805.270934 42.243486 27.604412 77396 4977.034366
0.065000 0.065232 28885.937265 330.687845 12243.579658 465.183509 250.850482 108936 4977.034366
0.075000 0.075229 23871.125015 412.407540 11740.918692 368.979881 -306.587231 144980 4977.034366
0.085000 0.085193 20243.212803 386.681580 9838.334877 250.986606 2344.674121 184854 4977.034366
0.095000 0.095166 17340.094959 164.313886 8274.322118 708.572673 1451.220683 232260 4977.034366
0.105000 0.105155 14278.538522 175.239571 5290.896213 206.872732 1552.787512 282884 4977.034366
0.115000 0.115131 12956.949823 107.577659 4074.455237 144.103372 128.381604 339084 4977.034366
0.125000 0.125124 11926.464761 128.447502 3549.253506 59.995323 296.707205 401864 4977.034366
0.135000 0.135125 10771.743737 150.357942 3635.044085 47.581297 719.054028 468084 4977.034366
0.145000 0.145120 9664.036482 118.211974 3058.113004 137.211021 625.902936 539940 4977.034366
0.155000 0.155118 8670.719510 103.981429 2843.660049 -49.172390 -125.374177 617324 4977.034366
0.165000 0.165105 7615.217848 58.233667 2230.415870 212.132227 111.125944 697452 4977.034366
0.175000 0.175088 7012.049419 96.359575 1997.598419 -29.746271 -198.860328 785846 4977.034366
0.185000 0.185089 6639.900259 59.517170 1850.539550 56.688319 185.421010 879528 4977.034366
0.195000 0.195093 6288.413441 78.801250 1968.861808 47.270888 441.786726 976596 4977.034366
0.205000 0.205084 5664.681148 62.939769 1539.722028 33.953568 111.096726 1077212 4977.034366
0.215000 0.215076 5350.263934 65.369619 971.856531 39.517693 -293.220150 1186908 4977.034366
0.225000 0.225076 4892.760134 75.107571 838.355474 28.321715 3.718094 1299452 4977.034366
0.235000 0.235073 4505.827154 61.499995 638.093478 -16.085298 -17.381779 1417356 4977.034366
0.245000 0.245067 4274.188135 44.117982 712.126787 50.507044 28.593097 1539600 4977.034366
0.255000 0.255064 4066.944219 75.436978 474.766415 0.280500 -113.130458 1669820 4977.034366
0.265000 0.265061 3801.067888 50.327810 475.907590 30.013153 223.770664 1801086 4977.034366
0.275000 0.275060 3606.994177 56.996918 439.804229 -1.904221 203.958598 1942244 4977.034366
0.285000 0.285062 3357.400200 59.544945 316.039904 -1.551562 176.860128 2084796 4977.034366
0.295000 0.295057 3146.773811 58.667255 202.311322 13.235051 -62.519754 2231868 4977.034366
