#Data file /home/DATA/sbrieden/Patchy_dr12_mocks/prerecon/original/Patchy-Mocks-DR12CMASS-S-V6C-Portsmouth-mass_0091.dat
#Random file /home/DATA/sbrieden/Patchy_dr12_mocks/prerecon/original/Random-DR12CMASS-S-V6C-x20.dat
#Number of data elements used: 212135
#Number of random elements used: 4288842
#Effective number of data elements weighted by wcol: 212135.000000
#Effective number of random elements weighted by wcol: 4288842.000000
#Effective number of data elements weighted by wcol*wsys: 212135.000000
#Effective number of random elements weighted by wcol*wsys: 4288842.000000
#Effective redshift value from data 0.598378
#Effective redshift value from randoms 0.597190
#Size of the Box 3700.000000 Mpc/h
#Area of the survey used 2525.000000 deg^2
#Value of alpha: 0.049831
#Normalization using data file
#Normalization using density
#Normalization 4.044397
#Shot noise factor 1.000000
#Shot noise value 4981.126734
#Type of Computation: FFT
#Number of grid cells: 512
#Type of Mass Assigment: TSC
#Type of Yamamoto: GridCenter
#Number of Interlacing steps: 2
#Grid Correction: yes
#Value of Om=0.310000
#Quadrupole as L2
#Octopole as L3
#Hexadecapole as L2L2
#k-centerbin	 k-eff	 Monopole-Pshotnoise	 Dipole	 Quadrupole	 Octopole	 Hexadecapole	 number of modes	 Pshotnoise
0.005000 0.007485 50002.511914 1313.165819 55348.233531 26937.556086 66661.928502 846 4981.126734
0.015000 0.016072 69625.722615 -1331.693730 49798.765035 15243.405344 39818.100965 6012 4981.126734
0.025000 0.025646 58485.368746 2064.089096 16557.490377 1785.129651 -6959.978408 16172 4981.126734
0.035000 0.035469 42908.740271 883.591703 13788.094996 -171.868701 7627.508600 31764 4981.126734
0.045000 0.045378 36524.170020 493.240981 10174.387182 710.224748 -4564.572030 52164 4981.126734
0.055000 0.055280 32563.256784 376.426646 12416.562488 664.062259 911.151842 77396 4981.126734
0.065000 0.065232 27193.896393 435.492435 12404.437613 88.103315 200.681702 108936 4981.126734
0.075000 0.075229 23436.437133 308.107728 12122.049930 815.257130 3006.404839 144980 4981.126734
0.085000 0.085193 19291.072749 328.236178 7183.671405 308.401338 2986.792965 184854 4981.126734
0.095000 0.095166 16537.079022 237.536845 6742.132414 123.179718 1090.960976 232260 4981.126734
0.105000 0.105155 13918.327528 195.924649 5513.385680 107.120088 1271.226492 282884 4981.126734
0.115000 0.115131 12990.520704 37.684826 4760.705679 261.696583 -316.139017 339084 4981.126734
0.125000 0.125124 11749.786860 160.647528 4357.411775 63.154128 -764.290641 401864 4981.126734
0.135000 0.135125 10694.684428 112.750370 3132.648123 186.388856 756.441578 468084 4981.126734
0.145000 0.145120 9571.760872 129.187768 2467.252182 30.404015 165.963905 539940 4981.126734
0.155000 0.155118 8367.816890 102.384321 3013.265346 135.706905 1360.786895 617324 4981.126734
0.165000 0.165105 7456.141643 84.170026 1652.189880 63.154534 490.882994 697452 4981.126734
0.175000 0.175088 6950.007766 59.584316 1318.371488 50.726679 131.057840 785846 4981.126734
0.185000 0.185089 6489.143596 62.816636 1267.545513 41.695377 197.944810 879528 4981.126734
0.195000 0.195093 6051.887031 79.211213 982.133932 50.078414 500.857782 976596 4981.126734
0.205000 0.205084 5551.601776 74.384222 1006.021841 12.690220 815.665187 1077212 4981.126734
0.215000 0.215076 5270.237567 49.747452 882.383724 -18.038384 386.067271 1186908 4981.126734
0.225000 0.225076 4923.850777 73.871237 500.338072 35.682260 -95.895260 1299452 4981.126734
0.235000 0.235073 4515.924095 57.812656 517.078705 3.525213 178.899812 1417356 4981.126734
0.245000 0.245067 4291.612427 64.262481 473.143414 7.157978 319.436204 1539600 4981.126734
0.255000 0.255064 3926.170915 56.919649 418.264168 24.730156 484.361652 1669820 4981.126734
0.265000 0.265061 3672.641300 58.541583 354.151062 12.081294 143.190083 1801086 4981.126734
0.275000 0.275060 3472.446518 50.568351 112.234137 15.245641 -16.918223 1942244 4981.126734
0.285000 0.285062 3279.407860 50.780354 190.554522 -8.396005 141.032262 2084796 4981.126734
0.295000 0.295057 3157.538015 67.967488 108.196792 21.827848 406.291098 2231868 4981.126734
