#Data file /home/DATA/sbrieden/Patchy_dr12_mocks/prerecon/original/Patchy-Mocks-DR12LOWZ-N-V5C-Portsmouth-mass_0005.dat
#Random file /home/DATA/sbrieden/Patchy_dr12_mocks/prerecon/original/Random-DR12LOWZ-N-V5C-x20.dat
#Number of data elements used: 234248
#Number of random elements used: 4685323
#Effective number of data elements weighted by wcol: 234248.000000
#Effective number of random elements weighted by wcol: 4685323.000000
#Effective number of data elements weighted by wcol*wsys: 234248.000000
#Effective number of random elements weighted by wcol*wsys: 4685323.000000
#Effective redshift value from data 0.329219
#Effective redshift value from randoms 0.330058
#Size of the Box 2500.000000 Mpc/h
#Area of the survey used 5826.000000 deg^2
#Value of alpha: 0.049872
#Normalization using data file
#Normalization using density
#Normalization 4.336674
#Shot noise factor 1.000000
#Shot noise value 3641.289736
#Type of Computation: FFT
#Number of grid cells: 512
#Type of Mass Assigment: TSC
#Type of Yamamoto: GridCenter
#Number of Interlacing steps: 2
#Grid Correction: yes
#Value of Om=0.310000
#Quadrupole as L2
#Octopole as L3
#Hexadecapole as L2L2
#k-centerbin	 k-eff	 Monopole-Pshotnoise	 Dipole	 Quadrupole	 Octopole	 Hexadecapole	 number of modes	 Pshotnoise
0.005000 0.007385 71438.284861 -9364.897290 -38887.389106 -6658.154789 -23856.229609 250 3641.289736
0.015000 0.016012 69176.376454 -840.409314 -8465.057203 -16264.634467 -23130.914510 1852 3641.289736
0.025000 0.025646 63956.151056 2071.846300 32842.138215 1362.561974 -20241.694091 5020 3641.289736
0.035000 0.035469 50097.001339 2105.943913 20784.174166 3696.756551 -8116.519831 9756 3641.289736
0.045000 0.045368 37423.194640 1344.257653 14479.979715 85.942652 -1846.780060 16108 3641.289736
0.055000 0.055314 33675.146853 492.184112 12172.736761 1665.848399 -5586.233816 24064 3641.289736
0.065000 0.065258 30242.127467 542.749083 11865.871914 911.823732 -1298.240806 33396 3641.289736
0.075000 0.075209 25003.495487 778.293453 9354.323319 380.593368 16.680809 44596 3641.289736
0.085000 0.085175 20800.645384 516.399489 5449.590908 406.470726 2117.829069 57124 3641.289736
0.095000 0.095157 17529.848603 239.626592 8037.028345 306.540428 546.185235 71620 3641.289736
0.105000 0.105162 15966.151227 237.731393 5266.067650 385.203421 -216.613659 87552 3641.289736
0.115000 0.115148 14093.704658 314.878260 5205.949291 162.143838 792.607900 104524 3641.289736
0.125000 0.125146 12507.592237 93.025087 3843.638454 421.898626 486.036623 124228 3641.289736
0.135000 0.135146 11457.124064 241.047004 2886.348828 94.568315 1181.436988 144204 3641.289736
0.145000 0.145132 10325.461288 127.473562 3293.441702 88.994257 1005.354948 166492 3641.289736
0.155000 0.155114 9188.731365 164.451820 2048.003215 185.752383 827.991682 189964 3641.289736
0.165000 0.165102 8195.069723 157.149586 1773.807275 -40.626258 -366.737705 215640 3641.289736
0.175000 0.175105 7519.941126 77.755576 1693.154799 100.854956 187.663762 242836 3641.289736
0.185000 0.185097 7072.307922 82.408174 1848.450207 43.447176 418.988162 270556 3641.289736
0.195000 0.195085 6484.044531 98.506653 1434.684349 61.712860 -212.136933 301084 3641.289736
0.205000 0.205080 5943.185378 88.457768 1126.579848 48.886486 136.094596 332628 3641.289736
0.215000 0.215092 5437.076621 102.700120 1035.194898 63.828469 -178.607367 367216 3641.289736
0.225000 0.225099 5032.697846 42.933677 530.376545 40.666527 -13.776975 400444 3641.289736
0.235000 0.235081 4783.554366 68.482464 678.260522 39.003827 401.544684 436500 3641.289736
0.245000 0.245077 4491.283070 65.926720 691.694014 18.398054 239.823033 475900 3641.289736
0.255000 0.255082 4158.438114 54.672813 387.396837 11.200071 255.214421 514900 3641.289736
0.265000 0.265074 4039.131667 42.813082 399.414569 12.370589 119.241280 555408 3641.289736
0.275000 0.275066 3701.917448 70.481279 326.039225 89.276723 269.409345 598684 3641.289736
0.285000 0.285066 3477.032684 35.658639 130.955095 -5.935895 408.346145 643228 3641.289736
0.295000 0.295058 3304.954971 44.836366 237.908777 -6.833975 563.052785 688036 3641.289736
