#Data file /home/DATA/sbrieden/Patchy_dr12_mocks/prerecon/original/Patchy-Mocks-DR12CMASS-N-V6C-Portsmouth-mass_0072.dat
#Random file /home/DATA/sbrieden/Patchy_dr12_mocks/prerecon/original/Random-DR12CMASS-N-V6C-x20.dat
#Number of data elements used: 591165
#Number of random elements used: 11797448
#Effective number of data elements weighted by wcol: 591165.000000
#Effective number of random elements weighted by wcol: 11797448.000000
#Effective number of data elements weighted by wcol*wsys: 591165.000000
#Effective number of random elements weighted by wcol*wsys: 11797448.000000
#Effective redshift value from data 0.597386
#Effective redshift value from randoms 0.597992
#Size of the Box 3700.000000 Mpc/h
#Area of the survey used 6851.000000 deg^2
#Value of alpha: 0.049864
#Normalization using data file
#Normalization using density
#Normalization 11.082160
#Shot noise factor 1.000000
#Shot noise value 4907.170110
#Type of Computation: FFT
#Number of grid cells: 512
#Type of Mass Assigment: TSC
#Type of Yamamoto: GridCenter
#Number of Interlacing steps: 2
#Grid Correction: yes
#Value of Om=0.310000
#Quadrupole as L2
#Octopole as L3
#Hexadecapole as L2L2
#k-centerbin	 k-eff	 Monopole-Pshotnoise	 Dipole	 Quadrupole	 Octopole	 Hexadecapole	 number of modes	 Pshotnoise
0.005000 0.007485 49252.113584 1058.041440 32772.409723 29240.614048 56597.345437 846 4907.170110
0.015000 0.016072 76578.311197 -147.537953 39207.940176 4178.068266 2077.477788 6012 4907.170110
0.025000 0.025646 60389.725520 2153.206581 25042.359613 3702.752745 5907.624511 16172 4907.170110
0.035000 0.035469 46771.974017 668.895083 15656.611173 -184.295052 -3636.412667 31764 4907.170110
0.045000 0.045378 37797.247533 975.184731 15045.681323 814.195306 -6760.998912 52164 4907.170110
0.055000 0.055280 31495.285948 196.852245 10878.279713 739.493127 7.162883 77396 4907.170110
0.065000 0.065232 27172.925774 335.812482 9743.079475 378.000755 207.256148 108936 4907.170110
0.075000 0.075229 25053.570224 367.264108 8309.468794 210.169971 318.801164 144980 4907.170110
0.085000 0.085193 20459.151016 254.560960 7942.863995 423.171543 675.591644 184854 4907.170110
0.095000 0.095166 17490.026619 303.336041 5734.623887 143.387183 -274.917440 232260 4907.170110
0.105000 0.105155 14438.913190 207.889420 5153.694268 36.828983 61.164016 282884 4907.170110
0.115000 0.115131 12896.372512 97.294693 4864.006406 247.496389 473.967886 339084 4907.170110
0.125000 0.125124 12074.667581 115.011857 3281.522783 208.701247 -137.355354 401864 4907.170110
0.135000 0.135125 10718.312460 82.645372 2909.431347 36.567713 436.871672 468084 4907.170110
0.145000 0.145120 9828.233700 166.766952 2479.198222 15.431542 447.526704 539940 4907.170110
0.155000 0.155118 8630.231400 115.719279 2832.876045 23.850952 208.699172 617324 4907.170110
0.165000 0.165105 7857.659495 59.936085 2545.376097 136.230882 470.276313 697452 4907.170110
0.175000 0.175088 7170.945670 101.326652 2292.707883 -7.085203 179.298360 785846 4907.170110
0.185000 0.185089 6614.208762 62.295766 1768.659089 106.885195 258.253478 879528 4907.170110
0.195000 0.195093 6053.199728 66.511023 1673.190655 36.055352 354.347683 976596 4907.170110
0.205000 0.205084 5709.989877 73.910446 1248.418423 35.194144 373.419342 1077212 4907.170110
0.215000 0.215076 5308.851311 56.821746 1300.265593 23.693537 436.441925 1186908 4907.170110
0.225000 0.225076 4894.096441 71.578899 1065.041143 43.408745 275.569334 1299452 4907.170110
0.235000 0.235073 4558.212766 60.045538 897.336803 35.391831 312.990361 1417356 4907.170110
0.245000 0.245067 4293.701397 55.169989 552.577063 21.216360 483.054579 1539600 4907.170110
0.255000 0.255064 3994.056715 59.971409 515.765670 13.019319 475.035252 1669820 4907.170110
0.265000 0.265061 3802.329467 55.796322 366.146825 5.009972 93.788234 1801086 4907.170110
0.275000 0.275060 3499.560636 71.523127 293.057411 -2.986492 299.904764 1942244 4907.170110
0.285000 0.285062 3348.133092 33.997232 207.452043 28.175741 313.328726 2084796 4907.170110
0.295000 0.295057 3215.171099 60.458185 271.811604 17.358255 174.002770 2231868 4907.170110
