#Data file /home/DATA/sbrieden/Patchy_dr12_mocks/prerecon/original/Patchy-Mocks-DR12CMASS-N-V6C-Portsmouth-mass_0034.dat
#Random file /home/DATA/sbrieden/Patchy_dr12_mocks/prerecon/original/Random-DR12CMASS-N-V6C-x20.dat
#Number of data elements used: 593807
#Number of random elements used: 11797448
#Effective number of data elements weighted by wcol: 593807.000000
#Effective number of random elements weighted by wcol: 11797448.000000
#Effective number of data elements weighted by wcol*wsys: 593807.000000
#Effective number of random elements weighted by wcol*wsys: 11797448.000000
#Effective redshift value from data 0.597992
#Effective redshift value from randoms 0.597992
#Size of the Box 3700.000000 Mpc/h
#Area of the survey used 6851.000000 deg^2
#Value of alpha: 0.050337
#Normalization using data file
#Normalization using density
#Normalization 11.165008
#Shot noise factor 1.000000
#Shot noise value 4939.200763
#Type of Computation: FFT
#Number of grid cells: 512
#Type of Mass Assigment: TSC
#Type of Yamamoto: GridCenter
#Number of Interlacing steps: 2
#Grid Correction: yes
#Value of Om=0.310000
#Quadrupole as L2
#Octopole as L3
#Hexadecapole as L2L2
#k-centerbin	 k-eff	 Monopole-Pshotnoise	 Dipole	 Quadrupole	 Octopole	 Hexadecapole	 number of modes	 Pshotnoise
0.005000 0.007485 47310.041520 -4069.337969 2990.514351 -714.919848 -8494.308854 846 4939.200763
0.015000 0.016072 63713.184251 -753.729769 15965.263270 6694.274404 11813.362356 6012 4939.200763
0.025000 0.025646 61833.623959 1735.330026 17551.199356 -606.672653 4173.103192 16172 4939.200763
0.035000 0.035469 47234.696787 1146.345197 16303.837955 1117.413861 2972.400751 31764 4939.200763
0.045000 0.045378 36927.559680 716.939253 16145.865506 1041.207708 4852.511501 52164 4939.200763
0.055000 0.055280 32480.477594 342.851957 14786.163895 948.044762 3879.494849 77396 4939.200763
0.065000 0.065232 28454.910427 213.579585 9256.236272 410.522976 2516.598141 108936 4939.200763
0.075000 0.075229 24669.069799 519.719374 9288.919958 120.898796 -386.326220 144980 4939.200763
0.085000 0.085193 20367.099794 255.540683 8212.183947 380.425708 -208.334752 184854 4939.200763
0.095000 0.095166 17055.283820 238.793612 6650.033904 162.998348 -863.765875 232260 4939.200763
0.105000 0.105155 14627.804863 165.023079 6145.479928 285.410920 93.155561 282884 4939.200763
0.115000 0.115131 13169.770524 132.332278 4775.560261 130.727423 452.333393 339084 4939.200763
0.125000 0.125124 12094.157788 121.209669 3584.154979 102.438338 -408.670508 401864 4939.200763
0.135000 0.135125 10706.503079 156.323053 3265.921457 32.602479 10.840216 468084 4939.200763
0.145000 0.145120 9649.828574 86.703075 2978.439114 177.466599 69.379872 539940 4939.200763
0.155000 0.155118 8714.336888 111.230257 2802.659971 42.118269 569.052166 617324 4939.200763
0.165000 0.165105 7771.009618 92.487668 2174.126999 56.591838 216.089929 697452 4939.200763
0.175000 0.175088 7249.845463 68.369328 2160.233023 43.100795 548.304440 785846 4939.200763
0.185000 0.185089 6682.976040 91.660974 1745.651563 2.289931 234.873131 879528 4939.200763
0.195000 0.195093 6170.474240 39.405514 1326.321079 130.601606 -180.177292 976596 4939.200763
0.205000 0.205084 5719.810057 75.574943 1123.840408 7.832429 228.709326 1077212 4939.200763
0.215000 0.215076 5378.779060 71.400982 1007.124686 17.505477 308.405493 1186908 4939.200763
0.225000 0.225076 4982.598203 59.635685 964.987913 30.556259 147.277506 1299452 4939.200763
0.235000 0.235073 4674.100481 64.591753 900.742746 13.758739 341.989892 1417356 4939.200763
0.245000 0.245067 4348.960078 64.058928 719.637059 14.726345 64.978982 1539600 4939.200763
0.255000 0.255064 4126.867985 45.523798 616.706212 38.980300 353.276323 1669820 4939.200763
0.265000 0.265061 3820.327760 66.570057 362.042370 -5.417940 181.911589 1801086 4939.200763
0.275000 0.275060 3533.828843 63.335249 362.376401 35.436663 178.509967 1942244 4939.200763
0.285000 0.285062 3385.784216 55.676389 198.516479 1.791806 317.882646 2084796 4939.200763
0.295000 0.295057 3178.883950 52.353172 101.175978 2.417941 306.591607 2231868 4939.200763
