#Data file /home/DATA/sbrieden/Patchy_dr12_mocks/prerecon/original/Patchy-Mocks-DR12CMASS-S-V6C-Portsmouth-mass_0031.dat
#Random file /home/DATA/sbrieden/Patchy_dr12_mocks/prerecon/original/Random-DR12CMASS-S-V6C-x20.dat
#Number of data elements used: 214675
#Number of random elements used: 4288842
#Effective number of data elements weighted by wcol: 214675.000000
#Effective number of random elements weighted by wcol: 4288842.000000
#Effective number of data elements weighted by wcol*wsys: 214675.000000
#Effective number of random elements weighted by wcol*wsys: 4288842.000000
#Effective redshift value from data 0.597051
#Effective redshift value from randoms 0.597190
#Size of the Box 3700.000000 Mpc/h
#Area of the survey used 2525.000000 deg^2
#Value of alpha: 0.049924
#Normalization using data file
#Normalization using density
#Normalization 4.070250
#Shot noise factor 1.000000
#Shot noise value 4914.251490
#Type of Computation: FFT
#Number of grid cells: 512
#Type of Mass Assigment: TSC
#Type of Yamamoto: GridCenter
#Number of Interlacing steps: 2
#Grid Correction: yes
#Value of Om=0.310000
#Quadrupole as L2
#Octopole as L3
#Hexadecapole as L2L2
#k-centerbin	 k-eff	 Monopole-Pshotnoise	 Dipole	 Quadrupole	 Octopole	 Hexadecapole	 number of modes	 Pshotnoise
0.005000 0.007485 81410.062581 4297.430094 14425.194696 -1757.808794 -5947.502328 846 4914.251490
0.015000 0.016072 60373.723664 2571.111410 5570.391121 -2241.699036 -14803.121581 6012 4914.251490
0.025000 0.025646 49504.990889 -780.201513 9505.885151 3089.772271 6005.231228 16172 4914.251490
0.035000 0.035469 45529.861253 1015.573582 17457.891117 921.288327 14840.258846 31764 4914.251490
0.045000 0.045378 35076.191829 786.180020 17898.349337 746.584787 -17.133609 52164 4914.251490
0.055000 0.055280 31033.446592 212.393506 9880.886918 372.728243 -3568.741659 77396 4914.251490
0.065000 0.065232 27542.148979 661.219669 10792.266203 20.447968 785.524204 108936 4914.251490
0.075000 0.075229 23298.602183 197.512295 10100.538462 942.585608 4983.882272 144980 4914.251490
0.085000 0.085193 20515.187216 277.271222 8127.876539 -34.784208 1841.140304 184854 4914.251490
0.095000 0.095166 16869.531274 240.287179 7077.147497 281.158939 -1006.000219 232260 4914.251490
0.105000 0.105155 13700.843029 230.900811 5432.878947 255.727865 177.216727 282884 4914.251490
0.115000 0.115131 13171.118666 40.099243 5457.450093 218.462982 1692.387534 339084 4914.251490
0.125000 0.125124 12184.874742 119.172981 4227.774800 160.210011 1340.955338 401864 4914.251490
0.135000 0.135125 10581.203631 162.355023 3760.080507 94.815042 1644.760248 468084 4914.251490
0.145000 0.145120 9328.227286 98.988234 3059.744466 46.560173 -215.254730 539940 4914.251490
0.155000 0.155118 8429.635925 96.326095 2590.344029 132.884452 49.284042 617324 4914.251490
0.165000 0.165105 7649.048994 89.081565 2253.897736 13.657623 371.729390 697452 4914.251490
0.175000 0.175088 7079.057799 60.944683 1703.139709 58.335879 -19.489559 785846 4914.251490
0.185000 0.185089 6739.813481 73.457957 1507.940688 46.664493 -331.285228 879528 4914.251490
0.195000 0.195093 6205.167474 71.057689 1328.540948 32.994505 611.601815 976596 4914.251490
0.205000 0.205084 5722.207659 67.047594 1338.249850 9.106862 294.073799 1077212 4914.251490
0.215000 0.215076 5257.955519 85.912135 961.195326 45.323621 -192.339585 1186908 4914.251490
0.225000 0.225076 4799.572020 52.190234 879.785192 23.389881 348.112222 1299452 4914.251490
0.235000 0.235073 4592.566503 74.650359 977.977312 -3.864946 304.381787 1417356 4914.251490
0.245000 0.245067 4223.713372 49.453406 698.610648 -4.710634 -179.290044 1539600 4914.251490
0.255000 0.255064 4032.196769 47.156080 647.368012 50.499935 -89.507157 1669820 4914.251490
0.265000 0.265061 3862.424858 59.099259 277.426760 48.514810 212.969475 1801086 4914.251490
0.275000 0.275060 3564.438922 64.025822 267.660153 -19.941991 170.251915 1942244 4914.251490
0.285000 0.285062 3327.935316 57.880017 78.470745 22.062955 174.261170 2084796 4914.251490
0.295000 0.295057 3200.236812 58.664572 210.332915 -16.260562 488.987418 2231868 4914.251490
