#Data file /home/DATA/sbrieden/Patchy_dr12_mocks/prerecon/original/Patchy-Mocks-DR12LOWZ-S-V5C-Portsmouth-mass_0068.dat
#Random file /home/DATA/sbrieden/Patchy_dr12_mocks/prerecon/original/Random-DR12LOWZ-S-V5C-x20.dat
#Number of data elements used: 100604
#Number of random elements used: 2007904
#Effective number of data elements weighted by wcol: 100604.000000
#Effective number of random elements weighted by wcol: 2007904.000000
#Effective number of data elements weighted by wcol*wsys: 100604.000000
#Effective number of random elements weighted by wcol*wsys: 2007904.000000
#Effective redshift value from data 0.330407
#Effective redshift value from randoms 0.330155
#Size of the Box 2500.000000 Mpc/h
#Area of the survey used 2501.000000 deg^2
#Value of alpha: 0.050130
#Normalization using data file
#Normalization using density
#Normalization 1.865580
#Shot noise factor 1.000000
#Shot noise value 3661.717818
#Type of Computation: FFT
#Number of grid cells: 512
#Type of Mass Assigment: TSC
#Type of Yamamoto: GridCenter
#Number of Interlacing steps: 2
#Grid Correction: yes
#Value of Om=0.310000
#Quadrupole as L2
#Octopole as L3
#Hexadecapole as L2L2
#k-centerbin	 k-eff	 Monopole-Pshotnoise	 Dipole	 Quadrupole	 Octopole	 Hexadecapole	 number of modes	 Pshotnoise
0.005000 0.007385 72700.932979 -18732.781415 -27937.227042 -2831.510616 -24769.841455 250 3661.717818
0.015000 0.016012 78186.273372 747.552654 -27433.250470 -1601.985893 -2441.094624 1852 3661.717818
0.025000 0.025646 61329.675324 2184.612417 12617.366279 -2376.016317 15608.657375 5020 3661.717818
0.035000 0.035469 49831.983275 2205.260316 17552.832514 -3771.386320 -16610.205599 9756 3661.717818
0.045000 0.045368 41581.580124 284.869231 12778.590090 3274.154699 -3053.137513 16108 3661.717818
0.055000 0.055314 34365.312567 1766.816232 14029.567633 -683.328643 -7009.504242 24064 3661.717818
0.065000 0.065258 28320.070341 369.254645 12468.402726 1896.033533 -2701.340456 33396 3661.717818
0.075000 0.075209 23697.112375 515.409960 7231.057270 -25.732925 -2460.037805 44596 3661.717818
0.085000 0.085175 20408.176734 532.847817 6714.591786 221.207397 -681.181463 57124 3661.717818
0.095000 0.095157 16944.191735 336.755421 5529.448613 708.960139 -1281.102357 71620 3661.717818
0.105000 0.105162 15092.594357 207.670105 6079.152360 416.347016 1980.656269 87552 3661.717818
0.115000 0.115148 13751.147141 178.422964 3456.819378 225.728460 1577.198970 104524 3661.717818
0.125000 0.125146 12585.654021 208.906516 2322.557124 -19.148838 -420.128173 124228 3661.717818
0.135000 0.135146 11904.020279 109.335247 2803.473336 219.008827 1800.570532 144204 3661.717818
0.145000 0.145132 10369.332686 157.351362 2846.934633 141.905337 1641.450325 166492 3661.717818
0.155000 0.155114 9401.726116 237.552933 2198.432337 299.183772 2069.730408 189964 3661.717818
0.165000 0.165102 8309.756360 93.797958 2030.204681 -197.543825 685.042315 215640 3661.717818
0.175000 0.175105 7632.249158 100.350264 1944.975099 202.802934 1002.604456 242836 3661.717818
0.185000 0.185097 6844.259388 112.145626 1547.731450 43.569730 1126.626225 270556 3661.717818
0.195000 0.195085 6620.262521 50.308891 1652.319949 90.690320 1015.530511 301084 3661.717818
0.205000 0.205080 5937.158587 94.518315 1103.477590 19.928809 673.675580 332628 3661.717818
0.215000 0.215092 5586.581341 72.550735 1119.597437 79.451509 315.890978 367216 3661.717818
0.225000 0.225099 5194.273322 62.249810 1075.391779 -114.795643 -99.329656 400444 3661.717818
0.235000 0.235081 4992.642495 60.855812 876.141062 154.632015 72.295511 436500 3661.717818
0.245000 0.245077 4601.055962 81.021531 446.733327 48.656331 287.471461 475900 3661.717818
0.255000 0.255082 4173.988765 46.382870 245.423602 56.299510 303.780306 514900 3661.717818
0.265000 0.265074 4025.969831 60.700786 292.851739 -52.698846 286.098958 555408 3661.717818
0.275000 0.275066 3673.478019 69.197849 476.961907 20.491638 284.956145 598684 3661.717818
0.285000 0.285066 3550.018410 49.027334 502.440474 28.426918 404.273047 643228 3661.717818
0.295000 0.295058 3244.939865 44.453851 86.937384 43.336210 549.091677 688036 3661.717818
