#Data file /home/DATA/sbrieden/Patchy_dr12_mocks/prerecon/original/Patchy-Mocks-DR12CMASS-S-V6C-Portsmouth-mass_0096.dat
#Random file /home/DATA/sbrieden/Patchy_dr12_mocks/prerecon/original/Random-DR12CMASS-S-V6C-x20.dat
#Number of data elements used: 216450
#Number of random elements used: 4288842
#Effective number of data elements weighted by wcol: 216450.000000
#Effective number of random elements weighted by wcol: 4288842.000000
#Effective number of data elements weighted by wcol*wsys: 216450.000000
#Effective number of random elements weighted by wcol*wsys: 4288842.000000
#Effective redshift value from data 0.598091
#Effective redshift value from randoms 0.597190
#Size of the Box 3700.000000 Mpc/h
#Area of the survey used 2525.000000 deg^2
#Value of alpha: 0.050628
#Normalization using data file
#Normalization using density
#Normalization 4.117626
#Shot noise factor 1.000000
#Shot noise value 4953.756575
#Type of Computation: FFT
#Number of grid cells: 512
#Type of Mass Assigment: TSC
#Type of Yamamoto: GridCenter
#Number of Interlacing steps: 2
#Grid Correction: yes
#Value of Om=0.310000
#Quadrupole as L2
#Octopole as L3
#Hexadecapole as L2L2
#k-centerbin	 k-eff	 Monopole-Pshotnoise	 Dipole	 Quadrupole	 Octopole	 Hexadecapole	 number of modes	 Pshotnoise
0.005000 0.007485 56703.230638 -3907.759492 6778.012692 15334.582827 34790.764446 846 4953.756575
0.015000 0.016072 58943.381924 2792.668828 32209.480690 1789.675198 8650.245596 6012 4953.756575
0.025000 0.025646 60197.300110 -609.488392 25553.103298 5052.400339 17432.847971 16172 4953.756575
0.035000 0.035469 48809.953713 1561.654791 19713.275434 1732.258667 526.514091 31764 4953.756575
0.045000 0.045378 38391.988240 561.614087 16758.564022 1034.344836 5706.602240 52164 4953.756575
0.055000 0.055280 30433.317657 523.878106 12454.148388 133.608718 4613.879314 77396 4953.756575
0.065000 0.065232 26985.407602 394.673848 10992.404823 -22.029270 -5269.869117 108936 4953.756575
0.075000 0.075229 24031.306967 201.657982 10036.978010 771.773859 -586.129747 144980 4953.756575
0.085000 0.085193 19720.095089 370.529689 8820.577218 311.344537 1798.165461 184854 4953.756575
0.095000 0.095166 16594.794547 227.639050 7204.953239 351.152994 1672.335844 232260 4953.756575
0.105000 0.105155 14707.940249 117.570721 4618.275622 -80.134855 -889.693708 282884 4953.756575
0.115000 0.115131 13260.702927 157.082793 5417.807512 106.429485 -1640.971523 339084 4953.756575
0.125000 0.125124 12232.206700 136.629029 4346.329395 98.358707 -910.051085 401864 4953.756575
0.135000 0.135125 10723.861444 111.579460 3391.248887 226.882867 -529.660054 468084 4953.756575
0.145000 0.145120 9972.970400 89.967444 3031.111045 95.507032 389.656136 539940 4953.756575
0.155000 0.155118 8673.052809 134.632963 2614.075481 35.575120 62.694060 617324 4953.756575
0.165000 0.165105 7977.909882 87.772488 2869.076388 88.741201 126.816744 697452 4953.756575
0.175000 0.175088 7026.123965 101.842923 2143.762387 31.744833 306.336866 785846 4953.756575
0.185000 0.185089 6431.039657 67.986566 1712.348945 46.584791 177.381196 879528 4953.756575
0.195000 0.195093 6068.799907 49.073690 1415.829833 61.518678 16.215200 976596 4953.756575
0.205000 0.205084 5768.579026 69.463247 1242.662353 22.225290 111.589944 1077212 4953.756575
0.215000 0.215076 5145.005749 74.207789 1289.487619 28.622596 375.204383 1186908 4953.756575
0.225000 0.225076 4871.435131 70.416224 1283.433566 2.075357 329.369105 1299452 4953.756575
0.235000 0.235073 4549.129052 51.785901 1036.439264 36.394077 -248.082737 1417356 4953.756575
0.245000 0.245067 4399.788621 54.337320 468.121985 42.809029 -75.072934 1539600 4953.756575
0.255000 0.255064 4081.363030 56.087163 425.575965 0.699209 202.279198 1669820 4953.756575
0.265000 0.265061 3845.189022 61.204455 448.196060 28.554182 388.484024 1801086 4953.756575
0.275000 0.275060 3485.635492 70.935502 511.541314 7.707954 220.387377 1942244 4953.756575
0.285000 0.285062 3265.872265 43.861808 68.926891 11.000220 315.946131 2084796 4953.756575
0.295000 0.295057 3140.448458 50.307664 71.706458 28.742520 165.464849 2231868 4953.756575
