#Data file /home/DATA/sbrieden/Patchy_dr12_mocks/prerecon/original/Patchy-Mocks-DR12CMASS-S-V6C-Portsmouth-mass_0064.dat
#Random file /home/DATA/sbrieden/Patchy_dr12_mocks/prerecon/original/Random-DR12CMASS-S-V6C-x20.dat
#Number of data elements used: 214675
#Number of random elements used: 4288842
#Effective number of data elements weighted by wcol: 214675.000000
#Effective number of random elements weighted by wcol: 4288842.000000
#Effective number of data elements weighted by wcol*wsys: 214675.000000
#Effective number of random elements weighted by wcol*wsys: 4288842.000000
#Effective redshift value from data 0.597171
#Effective redshift value from randoms 0.597190
#Size of the Box 3700.000000 Mpc/h
#Area of the survey used 2525.000000 deg^2
#Value of alpha: 0.050048
#Normalization using data file
#Normalization using density
#Normalization 4.075275
#Shot noise factor 1.000000
#Shot noise value 4933.324262
#Type of Computation: FFT
#Number of grid cells: 512
#Type of Mass Assigment: TSC
#Type of Yamamoto: GridCenter
#Number of Interlacing steps: 2
#Grid Correction: yes
#Value of Om=0.310000
#Quadrupole as L2
#Octopole as L3
#Hexadecapole as L2L2
#k-centerbin	 k-eff	 Monopole-Pshotnoise	 Dipole	 Quadrupole	 Octopole	 Hexadecapole	 number of modes	 Pshotnoise
0.005000 0.007485 45626.040864 -7604.623758 -21807.116951 5329.620600 7983.142344 846 4933.324262
0.015000 0.016072 62685.853411 837.859553 2319.361269 -6005.241265 867.312226 6012 4933.324262
0.025000 0.025646 60973.567116 1553.431810 15993.167981 -52.695219 -3199.859008 16172 4933.324262
0.035000 0.035469 47398.728117 377.646812 12922.373985 2778.242337 2837.335314 31764 4933.324262
0.045000 0.045378 34756.219153 802.652248 7732.315280 187.229715 -2108.506073 52164 4933.324262
0.055000 0.055280 29154.158247 565.622049 14033.145586 12.805146 -802.657824 77396 4933.324262
0.065000 0.065232 26407.578055 214.807316 13281.272858 438.792377 123.210244 108936 4933.324262
0.075000 0.075229 23370.903949 444.572449 10976.188797 149.302174 -1136.733553 144980 4933.324262
0.085000 0.085193 19335.171603 246.995510 9824.859408 695.938681 1201.556737 184854 4933.324262
0.095000 0.095166 15812.632454 282.743925 5610.083606 254.178586 447.127009 232260 4933.324262
0.105000 0.105155 13306.468551 172.637018 5088.535720 72.472470 942.774226 282884 4933.324262
0.115000 0.115131 12133.826076 34.745176 4289.254756 191.867497 -403.599601 339084 4933.324262
0.125000 0.125124 11328.198351 111.469747 3643.096624 62.515237 496.063842 401864 4933.324262
0.135000 0.135125 10959.450044 135.182673 3455.199249 51.385992 226.014214 468084 4933.324262
0.145000 0.145120 9469.585664 76.165974 3022.235342 241.886082 -188.597542 539940 4933.324262
0.155000 0.155118 8559.686389 130.767295 2507.729863 -15.664396 652.809620 617324 4933.324262
0.165000 0.165105 7663.949025 86.097448 2493.955602 47.459438 215.598968 697452 4933.324262
0.175000 0.175088 6964.022002 79.186450 2496.824952 36.606900 292.057552 785846 4933.324262
0.185000 0.185089 6569.049049 70.608399 2031.125649 80.254316 354.880137 879528 4933.324262
0.195000 0.195093 6196.948286 63.343654 1626.242585 25.960617 94.431115 976596 4933.324262
0.205000 0.205084 5699.757527 71.184798 1571.365677 50.089357 275.658124 1077212 4933.324262
0.215000 0.215076 5215.179926 78.793820 1013.665704 14.952335 -98.930897 1186908 4933.324262
0.225000 0.225076 4785.293997 55.735147 874.391423 38.272712 323.732364 1299452 4933.324262
0.235000 0.235073 4510.282125 57.392080 693.273014 57.947311 331.320695 1417356 4933.324262
0.245000 0.245067 4322.749030 50.852485 455.280903 4.951854 335.573356 1539600 4933.324262
0.255000 0.255064 4052.318710 56.225483 625.764901 7.337345 483.230373 1669820 4933.324262
0.265000 0.265061 3848.893710 62.751719 539.814007 27.038489 436.125318 1801086 4933.324262
0.275000 0.275060 3519.438555 51.327652 273.175348 26.574925 409.693365 1942244 4933.324262
0.285000 0.285062 3358.625171 71.855296 246.727350 -31.588488 230.076651 2084796 4933.324262
0.295000 0.295057 3102.826550 48.115360 246.352800 49.669187 176.757337 2231868 4933.324262
