#Data file /home/DATA/sbrieden/Patchy_dr12_mocks/prerecon/original/Patchy-Mocks-DR12CMASS-N-V6C-Portsmouth-mass_0081.dat
#Random file /home/DATA/sbrieden/Patchy_dr12_mocks/prerecon/original/Random-DR12CMASS-N-V6C-x20.dat
#Number of data elements used: 589630
#Number of random elements used: 11797448
#Effective number of data elements weighted by wcol: 589630.000000
#Effective number of random elements weighted by wcol: 11797448.000000
#Effective number of data elements weighted by wcol*wsys: 589630.000000
#Effective number of random elements weighted by wcol*wsys: 11797448.000000
#Effective redshift value from data 0.598048
#Effective redshift value from randoms 0.597992
#Size of the Box 3700.000000 Mpc/h
#Area of the survey used 6851.000000 deg^2
#Value of alpha: 0.049882
#Normalization using data file
#Normalization using density
#Normalization 11.067138
#Shot noise factor 1.000000
#Shot noise value 4932.941205
#Type of Computation: FFT
#Number of grid cells: 512
#Type of Mass Assigment: TSC
#Type of Yamamoto: GridCenter
#Number of Interlacing steps: 2
#Grid Correction: yes
#Value of Om=0.310000
#Quadrupole as L2
#Octopole as L3
#Hexadecapole as L2L2
#k-centerbin	 k-eff	 Monopole-Pshotnoise	 Dipole	 Quadrupole	 Octopole	 Hexadecapole	 number of modes	 Pshotnoise
0.005000 0.007485 52529.129160 3395.490207 28308.066360 9705.723630 3464.148876 846 4932.941205
0.015000 0.016072 73434.601953 198.557701 9656.785283 -173.969776 -1249.906259 6012 4932.941205
0.025000 0.025646 58172.601377 973.115439 21453.278477 1511.435140 -6765.887970 16172 4932.941205
0.035000 0.035469 48016.240227 1138.659133 24043.178082 794.434302 2203.023033 31764 4932.941205
0.045000 0.045378 39920.502710 498.034001 19747.707267 1783.133981 3822.164806 52164 4932.941205
0.055000 0.055280 33381.846474 731.792320 12461.094739 252.145507 -1442.622020 77396 4932.941205
0.065000 0.065232 27050.380743 294.321275 10720.991782 633.481041 2064.975056 108936 4932.941205
0.075000 0.075229 24602.919097 281.980048 10459.839683 574.770479 1130.757828 144980 4932.941205
0.085000 0.085193 20285.500917 419.510102 8663.238706 104.728563 969.309096 184854 4932.941205
0.095000 0.095166 16937.887780 197.735541 7092.984570 352.704708 -80.937544 232260 4932.941205
0.105000 0.105155 14287.172387 179.173335 5678.610041 213.499700 -189.187728 282884 4932.941205
0.115000 0.115131 13125.772480 123.624771 4052.845030 147.652473 -474.754411 339084 4932.941205
0.125000 0.125124 11958.871535 101.171213 3723.884762 81.328132 113.237175 401864 4932.941205
0.135000 0.135125 10919.731466 108.890780 3627.302054 38.806149 -13.152765 468084 4932.941205
0.145000 0.145120 9718.250181 139.862996 3406.601145 136.318691 298.876537 539940 4932.941205
0.155000 0.155118 8473.308499 117.079824 3124.786823 59.542967 411.078042 617324 4932.941205
0.165000 0.165105 7774.757616 68.686572 2366.774788 128.687924 261.958254 697452 4932.941205
0.175000 0.175088 7128.414791 75.018731 2083.992849 53.414704 686.390625 785846 4932.941205
0.185000 0.185089 6588.982739 77.824132 1700.939834 4.602583 139.516028 879528 4932.941205
0.195000 0.195093 6293.056863 51.559886 1433.942814 51.075382 146.176898 976596 4932.941205
0.205000 0.205084 5803.287935 93.499750 1368.875238 6.329853 350.104496 1077212 4932.941205
0.215000 0.215076 5301.080530 66.527377 1062.829763 71.764934 409.360700 1186908 4932.941205
0.225000 0.225076 4925.070206 62.273247 924.279312 18.002682 384.066119 1299452 4932.941205
0.235000 0.235073 4553.282187 51.169829 658.343175 61.865666 134.328943 1417356 4932.941205
0.245000 0.245067 4226.460408 62.868621 508.291494 3.518674 509.510375 1539600 4932.941205
0.255000 0.255064 4065.325560 60.828045 482.533291 -4.297103 411.167723 1669820 4932.941205
0.265000 0.265061 3720.790740 53.280166 468.208732 8.866169 342.317266 1801086 4932.941205
0.275000 0.275060 3568.926583 62.047882 473.357746 12.041063 28.226327 1942244 4932.941205
0.285000 0.285062 3339.872452 50.225265 234.268579 21.104737 132.760949 2084796 4932.941205
0.295000 0.295057 3118.331358 61.223272 323.720196 -4.665083 148.585271 2231868 4932.941205
