#Data file /home/DATA/sbrieden/Patchy_dr12_mocks/prerecon/original/Patchy-Mocks-DR12CMASS-S-V6C-Portsmouth-mass_0057.dat
#Random file /home/DATA/sbrieden/Patchy_dr12_mocks/prerecon/original/Random-DR12CMASS-S-V6C-x20.dat
#Number of data elements used: 215984
#Number of random elements used: 4288842
#Effective number of data elements weighted by wcol: 215984.000000
#Effective number of random elements weighted by wcol: 4288842.000000
#Effective number of data elements weighted by wcol*wsys: 215984.000000
#Effective number of random elements weighted by wcol*wsys: 4288842.000000
#Effective redshift value from data 0.596898
#Effective redshift value from randoms 0.597190
#Size of the Box 3700.000000 Mpc/h
#Area of the survey used 2525.000000 deg^2
#Value of alpha: 0.050234
#Normalization using data file
#Normalization using density
#Normalization 4.095833
#Shot noise factor 1.000000
#Shot noise value 4914.512361
#Type of Computation: FFT
#Number of grid cells: 512
#Type of Mass Assigment: TSC
#Type of Yamamoto: GridCenter
#Number of Interlacing steps: 2
#Grid Correction: yes
#Value of Om=0.310000
#Quadrupole as L2
#Octopole as L3
#Hexadecapole as L2L2
#k-centerbin	 k-eff	 Monopole-Pshotnoise	 Dipole	 Quadrupole	 Octopole	 Hexadecapole	 number of modes	 Pshotnoise
0.005000 0.007485 61129.715535 -1065.635033 -18210.723098 -22474.543680 -40049.964645 846 4914.512361
0.015000 0.016072 55742.432121 1267.756474 31216.931345 3921.334877 -13221.477439 6012 4914.512361
0.025000 0.025646 59137.440766 123.571482 10768.906280 -929.603668 -8161.014971 16172 4914.512361
0.035000 0.035469 48274.016500 1532.680412 17853.651045 637.169278 -2839.953821 31764 4914.512361
0.045000 0.045378 37347.534422 402.062644 18598.632039 2846.964255 13146.391663 52164 4914.512361
0.055000 0.055280 31639.786904 470.552635 9614.916784 -713.121514 -161.417114 77396 4914.512361
0.065000 0.065232 28681.260891 359.238450 9311.532222 573.163306 -2045.459796 108936 4914.512361
0.075000 0.075229 23593.065533 308.642477 9687.434429 504.167004 318.144576 144980 4914.512361
0.085000 0.085193 20214.660990 364.463985 6223.476924 434.320023 750.632482 184854 4914.512361
0.095000 0.095166 16999.378080 204.906431 5102.471366 -81.691733 -576.299488 232260 4914.512361
0.105000 0.105155 14527.394510 176.957417 4862.210839 279.487892 603.290341 282884 4914.512361
0.115000 0.115131 13130.670359 118.431529 4114.235396 183.896317 -500.273361 339084 4914.512361
0.125000 0.125124 11697.478482 105.431381 3099.327836 228.961270 816.962864 401864 4914.512361
0.135000 0.135125 10579.765841 163.152259 2691.822679 -135.973063 410.448489 468084 4914.512361
0.145000 0.145120 9728.732262 49.146856 2369.067114 159.141928 722.453112 539940 4914.512361
0.155000 0.155118 8820.389180 133.984887 2080.467146 11.440332 -188.074334 617324 4914.512361
0.165000 0.165105 8035.722930 118.069023 2342.118886 19.186407 842.040088 697452 4914.512361
0.175000 0.175088 7052.939966 65.969084 2258.388860 111.411607 727.372697 785846 4914.512361
0.185000 0.185089 6786.771852 80.347788 1460.615751 10.537128 420.129058 879528 4914.512361
0.195000 0.195093 6044.113970 59.208443 1589.127525 69.765753 591.339711 976596 4914.512361
0.205000 0.205084 5716.678021 82.422723 1484.316859 -2.564399 644.523007 1077212 4914.512361
0.215000 0.215076 5293.414492 58.902875 1027.519016 18.738376 -55.550380 1186908 4914.512361
0.225000 0.225076 4825.604136 66.622740 975.191546 88.555784 270.450461 1299452 4914.512361
0.235000 0.235073 4528.588650 50.112673 902.868058 -19.956642 390.029841 1417356 4914.512361
0.245000 0.245067 4415.799731 59.836181 732.577135 3.262409 330.602437 1539600 4914.512361
0.255000 0.255064 4113.107438 70.440241 742.582083 17.433204 182.361842 1669820 4914.512361
0.265000 0.265061 3810.301740 50.726900 673.935934 45.961061 188.168955 1801086 4914.512361
0.275000 0.275060 3541.141076 54.769483 509.604403 32.173851 227.193093 1942244 4914.512361
0.285000 0.285062 3285.836337 69.242739 284.037524 -7.794948 229.969842 2084796 4914.512361
0.295000 0.295057 3049.355446 46.682210 155.230885 10.596485 218.400564 2231868 4914.512361
