#Data file /home/DATA/sbrieden/Patchy_dr12_mocks/prerecon/original/Patchy-Mocks-DR12LOWZ-S-V5C-Portsmouth-mass_0061.dat
#Random file /home/DATA/sbrieden/Patchy_dr12_mocks/prerecon/original/Random-DR12LOWZ-S-V5C-x20.dat
#Number of data elements used: 100359
#Number of random elements used: 2007904
#Effective number of data elements weighted by wcol: 100359.000000
#Effective number of random elements weighted by wcol: 2007904.000000
#Effective number of data elements weighted by wcol*wsys: 100359.000000
#Effective number of random elements weighted by wcol*wsys: 2007904.000000
#Effective redshift value from data 0.329556
#Effective redshift value from randoms 0.330155
#Size of the Box 2500.000000 Mpc/h
#Area of the survey used 2501.000000 deg^2
#Value of alpha: 0.049956
#Normalization using data file
#Normalization using density
#Normalization 1.860201
#Shot noise factor 1.000000
#Shot noise value 3653.129524
#Type of Computation: FFT
#Number of grid cells: 512
#Type of Mass Assigment: TSC
#Type of Yamamoto: GridCenter
#Number of Interlacing steps: 2
#Grid Correction: yes
#Value of Om=0.310000
#Quadrupole as L2
#Octopole as L3
#Hexadecapole as L2L2
#k-centerbin	 k-eff	 Monopole-Pshotnoise	 Dipole	 Quadrupole	 Octopole	 Hexadecapole	 number of modes	 Pshotnoise
0.005000 0.007385 57431.106645 -13513.132185 30476.263242 -6343.354584 -53275.335129 250 3653.129524
0.015000 0.016012 81222.697688 5228.183390 -3552.380467 -18372.409249 -48372.409940 1852 3653.129524
0.025000 0.025646 62897.846626 -797.540848 7511.246570 8632.504119 8442.533757 5020 3653.129524
0.035000 0.035469 53994.673467 2818.602333 2839.215425 -1441.751686 -3370.922932 9756 3653.129524
0.045000 0.045368 39196.959375 748.198451 3412.326237 1284.603124 -3722.666400 16108 3653.129524
0.055000 0.055314 32860.583728 1591.547737 7761.280115 -646.232037 5267.898108 24064 3653.129524
0.065000 0.065258 28457.506440 -169.547377 5854.481016 -194.326168 18.338466 33396 3653.129524
0.075000 0.075209 25516.516461 878.775326 10025.000653 998.110319 -2601.194468 44596 3653.129524
0.085000 0.085175 22399.127285 286.326232 6990.422580 815.978023 4819.279427 57124 3653.129524
0.095000 0.095157 17939.276645 641.112621 5482.965095 -510.847367 -2187.540543 71620 3653.129524
0.105000 0.105162 15258.060921 110.337505 4508.496433 613.124430 1630.997371 87552 3653.129524
0.115000 0.115148 14188.518033 249.882684 5170.687528 -32.327532 114.780402 104524 3653.129524
0.125000 0.125146 13321.280199 51.262158 2612.254372 533.541815 -1292.540336 124228 3653.129524
0.135000 0.135146 11466.687526 322.538413 2940.109151 -22.325536 1119.946805 144204 3653.129524
0.145000 0.145132 10104.532307 160.253568 1607.170101 -6.032045 -978.771808 166492 3653.129524
0.155000 0.155114 8819.932408 196.199177 2085.664700 129.492600 21.005627 189964 3653.129524
0.165000 0.165102 8202.607972 44.875541 2804.845676 231.197366 1795.578372 215640 3653.129524
0.175000 0.175105 7566.859876 151.132059 2527.932938 -86.021111 984.543927 242836 3653.129524
0.185000 0.185097 7215.058273 22.608676 1655.599494 73.376460 339.089949 270556 3653.129524
0.195000 0.195085 6755.793417 122.720050 1829.772175 172.798905 454.558592 301084 3653.129524
0.205000 0.205080 6187.059500 92.377976 1227.121942 16.878992 394.421105 332628 3653.129524
0.215000 0.215092 5481.619447 84.408423 1249.482302 90.914433 1012.217527 367216 3653.129524
0.225000 0.225099 4981.940255 68.220584 314.973179 33.171065 387.003386 400444 3653.129524
0.235000 0.235081 4762.225348 60.435098 311.135074 -13.652504 -228.224895 436500 3653.129524
0.245000 0.245077 4478.896785 68.773156 564.406027 32.009948 403.330593 475900 3653.129524
0.255000 0.255082 4156.351538 23.074982 259.692012 47.121671 154.612623 514900 3653.129524
0.265000 0.265074 3927.916960 88.873639 200.276545 -20.089826 -155.109661 555408 3653.129524
0.275000 0.275066 3688.639607 17.214603 -42.208804 96.585875 396.768399 598684 3653.129524
0.285000 0.285066 3439.839968 70.207700 -24.241949 -32.513989 610.161708 643228 3653.129524
0.295000 0.295058 3353.645210 54.533377 82.440866 -29.693876 334.877024 688036 3653.129524
