#Data file /home/DATA/sbrieden/Patchy_dr12_mocks/prerecon/original/Patchy-Mocks-DR12LOWZ-N-V5C-Portsmouth-mass_0057.dat
#Random file /home/DATA/sbrieden/Patchy_dr12_mocks/prerecon/original/Random-DR12LOWZ-N-V5C-x20.dat
#Number of data elements used: 235862
#Number of random elements used: 4685323
#Effective number of data elements weighted by wcol: 235862.000000
#Effective number of random elements weighted by wcol: 4685323.000000
#Effective number of data elements weighted by wcol*wsys: 235862.000000
#Effective number of random elements weighted by wcol*wsys: 4685323.000000
#Effective redshift value from data 0.330455
#Effective redshift value from randoms 0.330058
#Size of the Box 2500.000000 Mpc/h
#Area of the survey used 5826.000000 deg^2
#Value of alpha: 0.050440
#Normalization using data file
#Normalization using density
#Normalization 4.378440
#Shot noise factor 1.000000
#Shot noise value 3667.083206
#Type of Computation: FFT
#Number of grid cells: 512
#Type of Mass Assigment: TSC
#Type of Yamamoto: GridCenter
#Number of Interlacing steps: 2
#Grid Correction: yes
#Value of Om=0.310000
#Quadrupole as L2
#Octopole as L3
#Hexadecapole as L2L2
#k-centerbin	 k-eff	 Monopole-Pshotnoise	 Dipole	 Quadrupole	 Octopole	 Hexadecapole	 number of modes	 Pshotnoise
0.005000 0.007385 38952.930339 -648.266915 -6159.824090 -16554.158402 -24453.247872 250 3667.083206
0.015000 0.016012 74349.981543 -3394.818436 23872.380760 2403.869636 9457.615796 1852 3667.083206
0.025000 0.025646 68045.127217 1915.217114 27998.270234 2930.466787 7810.998462 5020 3667.083206
0.035000 0.035469 52291.895371 2751.197899 9628.024971 222.528236 -18813.914499 9756 3667.083206
0.045000 0.045368 38560.531873 879.617524 5062.573844 -289.514712 -9959.211491 16108 3667.083206
0.055000 0.055314 35424.764310 310.733167 11640.777420 1770.685025 -2134.701861 24064 3667.083206
0.065000 0.065258 31106.446328 915.819263 10396.666188 -347.163776 -5716.361447 33396 3667.083206
0.075000 0.075209 26722.449227 470.842145 8593.902939 586.212343 -2178.615001 44596 3667.083206
0.085000 0.085175 22416.588118 619.774956 7955.547636 753.122663 985.630135 57124 3667.083206
0.095000 0.095157 19107.984927 453.883833 6386.185980 233.611456 -152.581931 71620 3667.083206
0.105000 0.105162 16085.064647 232.401148 5885.365947 253.039378 -396.493639 87552 3667.083206
0.115000 0.115148 14595.529354 209.828632 4653.201524 173.544600 -421.676007 104524 3667.083206
0.125000 0.125146 13020.923551 283.191359 4656.762842 170.603236 -1313.304160 124228 3667.083206
0.135000 0.135146 11764.172698 191.017135 3692.045009 208.834109 -612.594018 144204 3667.083206
0.145000 0.145132 10323.377447 114.505129 3641.678255 210.856135 20.020383 166492 3667.083206
0.155000 0.155114 9465.515169 217.284688 2600.510107 45.822102 -328.482247 189964 3667.083206
0.165000 0.165102 8550.200244 63.327240 2444.544603 180.669911 162.181586 215640 3667.083206
0.175000 0.175105 7697.672344 128.188390 1494.223867 94.764946 218.754748 242836 3667.083206
0.185000 0.185097 6980.109260 96.037385 1531.877115 76.854249 1012.845523 270556 3667.083206
0.195000 0.195085 6702.163086 81.381721 1408.397516 30.518779 319.565685 301084 3667.083206
0.205000 0.205080 6130.408177 85.622811 1277.277586 -1.955972 33.093784 332628 3667.083206
0.215000 0.215092 5573.784459 102.021566 1287.876747 -3.173208 275.242715 367216 3667.083206
0.225000 0.225099 5074.137848 59.639191 1313.104093 141.469747 294.396801 400444 3667.083206
0.235000 0.235081 4895.975571 55.812154 723.931390 26.811256 344.248691 436500 3667.083206
0.245000 0.245077 4650.680720 59.070272 616.717355 25.851648 300.062971 475900 3667.083206
0.255000 0.255082 4319.575883 52.283252 481.734813 59.123665 227.268656 514900 3667.083206
0.265000 0.265074 4016.467507 65.118064 449.243164 -42.275157 345.738636 555408 3667.083206
0.275000 0.275066 3883.069096 44.131406 488.751819 38.926788 122.796702 598684 3667.083206
0.285000 0.285066 3598.472959 85.826653 201.738423 -2.162719 126.132562 643228 3667.083206
0.295000 0.295058 3278.506799 26.513158 30.825887 76.021530 144.684643 688036 3667.083206
