#Data file /home/DATA/sbrieden/Patchy_dr12_mocks/prerecon/original/Patchy-Mocks-DR12CMASS-S-V6C-Portsmouth-mass_0026.dat
#Random file /home/DATA/sbrieden/Patchy_dr12_mocks/prerecon/original/Random-DR12CMASS-S-V6C-x20.dat
#Number of data elements used: 215984
#Number of random elements used: 4288842
#Effective number of data elements weighted by wcol: 215984.000000
#Effective number of random elements weighted by wcol: 4288842.000000
#Effective number of data elements weighted by wcol*wsys: 215984.000000
#Effective number of random elements weighted by wcol*wsys: 4288842.000000
#Effective redshift value from data 0.596873
#Effective redshift value from randoms 0.597190
#Size of the Box 3700.000000 Mpc/h
#Area of the survey used 2525.000000 deg^2
#Value of alpha: 0.050387
#Normalization using data file
#Normalization using density
#Normalization 4.105239
#Shot noise factor 1.000000
#Shot noise value 4926.342026
#Type of Computation: FFT
#Number of grid cells: 512
#Type of Mass Assigment: TSC
#Type of Yamamoto: GridCenter
#Number of Interlacing steps: 2
#Grid Correction: yes
#Value of Om=0.310000
#Quadrupole as L2
#Octopole as L3
#Hexadecapole as L2L2
#k-centerbin	 k-eff	 Monopole-Pshotnoise	 Dipole	 Quadrupole	 Octopole	 Hexadecapole	 number of modes	 Pshotnoise
0.005000 0.007485 59774.921779 -0.803936 15484.492668 -1473.510491 -405.362192 846 4926.342026
0.015000 0.016072 45989.323129 2192.770899 33339.269838 7708.412210 20038.916387 6012 4926.342026
0.025000 0.025646 52079.618472 -2.791888 9530.441872 -554.711296 -8650.570318 16172 4926.342026
0.035000 0.035469 49160.778077 897.377649 13676.666641 1575.640375 11203.678871 31764 4926.342026
0.045000 0.045378 36402.519816 412.106679 14280.954622 1282.078437 4940.782729 52164 4926.342026
0.055000 0.055280 29935.925693 760.903704 13750.080570 -362.644009 49.210330 77396 4926.342026
0.065000 0.065232 27465.193764 -28.623402 11228.591852 983.296505 53.998886 108936 4926.342026
0.075000 0.075229 24144.461645 432.834173 9658.419615 217.287771 645.638685 144980 4926.342026
0.085000 0.085193 20071.398693 260.199080 6423.255273 409.797388 -911.399912 184854 4926.342026
0.095000 0.095166 17218.925748 230.216414 3927.789628 278.331264 -385.550402 232260 4926.342026
0.105000 0.105155 14936.092687 221.941247 5283.146186 -191.878375 947.931128 282884 4926.342026
0.115000 0.115131 13108.834420 116.913017 5046.592091 405.766760 1037.100109 339084 4926.342026
0.125000 0.125124 11976.041875 144.085309 3657.165394 -25.065038 5.525620 401864 4926.342026
0.135000 0.135125 10675.343871 149.283887 3210.275970 55.839595 512.938894 468084 4926.342026
0.145000 0.145120 9445.134305 88.252778 3087.504596 123.939850 405.762378 539940 4926.342026
0.155000 0.155118 8512.110605 112.671299 2621.977179 86.664006 206.889583 617324 4926.342026
0.165000 0.165105 7743.909473 58.814561 2004.525375 76.894362 -24.400126 697452 4926.342026
0.175000 0.175088 7177.291762 88.248359 1665.087686 50.919925 403.578695 785846 4926.342026
0.185000 0.185089 6570.219109 76.515187 1827.528661 27.078595 704.813842 879528 4926.342026
0.195000 0.195093 6108.255275 66.085936 1717.455896 76.081983 631.767019 976596 4926.342026
0.205000 0.205084 5603.783155 64.448786 999.078289 35.808718 721.009242 1077212 4926.342026
0.215000 0.215076 5248.725775 77.510560 1045.081402 -5.853960 64.437017 1186908 4926.342026
0.225000 0.225076 4837.599065 61.662591 967.064922 20.764840 389.717424 1299452 4926.342026
0.235000 0.235073 4574.851331 63.400943 731.592676 14.650233 362.038165 1417356 4926.342026
0.245000 0.245067 4247.237034 54.204204 790.666767 27.381374 473.545085 1539600 4926.342026
0.255000 0.255064 3991.050300 61.654673 568.271862 27.333936 79.878461 1669820 4926.342026
0.265000 0.265061 3837.234347 41.390406 377.035623 26.893488 214.310589 1801086 4926.342026
0.275000 0.275060 3634.014911 67.731814 341.154535 -20.679433 280.568069 1942244 4926.342026
0.285000 0.285062 3441.961163 53.859443 271.928771 34.351471 112.798157 2084796 4926.342026
0.295000 0.295057 3145.536593 64.477716 224.089689 -9.794144 298.790769 2231868 4926.342026
