#Data file /home/DATA/sbrieden/Patchy_dr12_mocks/prerecon/original/Patchy-Mocks-DR12CMASS-S-V6C-Portsmouth-mass_0086.dat
#Random file /home/DATA/sbrieden/Patchy_dr12_mocks/prerecon/original/Random-DR12CMASS-S-V6C-x20.dat
#Number of data elements used: 214487
#Number of random elements used: 4288842
#Effective number of data elements weighted by wcol: 214487.000000
#Effective number of random elements weighted by wcol: 4288842.000000
#Effective number of data elements weighted by wcol*wsys: 214487.000000
#Effective number of random elements weighted by wcol*wsys: 4288842.000000
#Effective redshift value from data 0.596866
#Effective redshift value from randoms 0.597190
#Size of the Box 3700.000000 Mpc/h
#Area of the survey used 2525.000000 deg^2
#Value of alpha: 0.049986
#Normalization using data file
#Normalization using density
#Normalization 4.073607
#Shot noise factor 1.000000
#Shot noise value 4920.746382
#Type of Computation: FFT
#Number of grid cells: 512
#Type of Mass Assigment: TSC
#Type of Yamamoto: GridCenter
#Number of Interlacing steps: 2
#Grid Correction: yes
#Value of Om=0.310000
#Quadrupole as L2
#Octopole as L3
#Hexadecapole as L2L2
#k-centerbin	 k-eff	 Monopole-Pshotnoise	 Dipole	 Quadrupole	 Octopole	 Hexadecapole	 number of modes	 Pshotnoise
0.005000 0.007485 74015.694886 5820.472690 -2586.710949 -16430.977202 -38630.838372 846 4920.746382
0.015000 0.016072 65385.108868 -1339.956503 -3320.421689 -2488.231768 -10766.677006 6012 4920.746382
0.025000 0.025646 62341.889165 1126.231650 353.077627 -820.212330 -4126.846234 16172 4920.746382
0.035000 0.035469 48702.997142 1656.463053 12153.566087 -710.951553 -12530.554453 31764 4920.746382
0.045000 0.045378 36361.963819 247.192920 11635.623534 1414.403863 849.039199 52164 4920.746382
0.055000 0.055280 31354.239161 501.285695 11452.379889 737.904690 222.763295 77396 4920.746382
0.065000 0.065232 26910.041841 240.595193 5839.519769 105.978487 -850.401411 108936 4920.746382
0.075000 0.075229 23778.612404 415.815540 4837.941855 -110.361368 -2494.940764 144980 4920.746382
0.085000 0.085193 19772.775575 275.985575 6045.864338 256.150195 103.251462 184854 4920.746382
0.095000 0.095166 15985.031640 227.364085 6201.586960 225.550829 323.360499 232260 4920.746382
0.105000 0.105155 14397.123014 172.038321 4863.605842 132.717035 404.229977 282884 4920.746382
0.115000 0.115131 13209.991778 136.213030 4404.488725 89.912333 -24.586552 339084 4920.746382
0.125000 0.125124 11694.478832 155.852016 4498.195802 48.690711 -703.975826 401864 4920.746382
0.135000 0.135125 10636.265443 80.933908 3751.184273 210.200757 471.113688 468084 4920.746382
0.145000 0.145120 9666.655670 114.498457 3030.541854 -21.697494 679.305312 539940 4920.746382
0.155000 0.155118 8688.861133 101.182086 2486.621814 102.931941 -3.316283 617324 4920.746382
0.165000 0.165105 7977.665211 110.734107 2838.883672 113.299179 658.979685 697452 4920.746382
0.175000 0.175088 7219.445177 56.332305 2142.148199 4.554109 487.604361 785846 4920.746382
0.185000 0.185089 6856.682987 66.778037 1718.432230 115.796402 -257.401216 879528 4920.746382
0.195000 0.195093 6143.132803 81.027312 1353.621944 -7.898943 -6.134571 976596 4920.746382
0.205000 0.205084 5799.257278 75.900679 1230.111587 9.167147 122.137835 1077212 4920.746382
0.215000 0.215076 5176.831637 65.285627 1105.252960 97.047981 -94.545013 1186908 4920.746382
0.225000 0.225076 4916.425241 40.106340 600.159909 -12.134498 -122.320516 1299452 4920.746382
0.235000 0.235073 4654.631082 84.640774 867.565750 -8.985748 -278.786606 1417356 4920.746382
0.245000 0.245067 4275.446715 63.144486 683.392683 35.055890 -26.601047 1539600 4920.746382
0.255000 0.255064 4022.118588 51.029330 678.297076 24.141100 28.617114 1669820 4920.746382
0.265000 0.265061 3714.960361 56.852263 467.575730 37.972530 249.338424 1801086 4920.746382
0.275000 0.275060 3593.489831 56.197352 275.745504 -2.654208 146.445934 1942244 4920.746382
0.285000 0.285062 3349.369151 57.561383 79.424048 7.069878 241.653534 2084796 4920.746382
0.295000 0.295057 3148.067782 56.185400 163.869036 4.927922 -62.406086 2231868 4920.746382
