#Data file /home/DATA/sbrieden/Patchy_dr12_mocks/prerecon/original/Patchy-Mocks-DR12LOWZ-N-V5C-Portsmouth-mass_0076.dat
#Random file /home/DATA/sbrieden/Patchy_dr12_mocks/prerecon/original/Random-DR12LOWZ-N-V5C-x20.dat
#Number of data elements used: 235510
#Number of random elements used: 4685323
#Effective number of data elements weighted by wcol: 235510.000000
#Effective number of random elements weighted by wcol: 4685323.000000
#Effective number of data elements weighted by wcol*wsys: 235510.000000
#Effective number of random elements weighted by wcol*wsys: 4685323.000000
#Effective redshift value from data 0.329538
#Effective redshift value from randoms 0.330058
#Size of the Box 2500.000000 Mpc/h
#Area of the survey used 5826.000000 deg^2
#Value of alpha: 0.050227
#Normalization using data file
#Normalization using density
#Normalization 4.365102
#Shot noise factor 1.000000
#Shot noise value 3650.308376
#Type of Computation: FFT
#Number of grid cells: 512
#Type of Mass Assigment: TSC
#Type of Yamamoto: GridCenter
#Number of Interlacing steps: 2
#Grid Correction: yes
#Value of Om=0.310000
#Quadrupole as L2
#Octopole as L3
#Hexadecapole as L2L2
#k-centerbin	 k-eff	 Monopole-Pshotnoise	 Dipole	 Quadrupole	 Octopole	 Hexadecapole	 number of modes	 Pshotnoise
0.005000 0.007385 39925.049392 -1569.977389 16278.187565 -16923.073351 -19139.035140 250 3650.308376
0.015000 0.016012 61105.891355 -2979.564645 25019.879721 2429.801739 -14529.748185 1852 3650.308376
0.025000 0.025646 63685.008057 3358.288465 10529.213575 -2593.346869 -26164.299280 5020 3650.308376
0.035000 0.035469 46060.324088 584.740797 13722.312019 3322.824272 -10555.990596 9756 3650.308376
0.045000 0.045368 41300.787268 1262.629880 15883.070329 792.075401 2111.751724 16108 3650.308376
0.055000 0.055314 35438.187857 850.496246 14424.863994 1405.682989 9246.602891 24064 3650.308376
0.065000 0.065258 30708.481579 431.327275 12945.698419 1019.361553 2943.867652 33396 3650.308376
0.075000 0.075209 26057.038255 961.308227 8845.608548 339.857952 3676.894978 44596 3650.308376
0.085000 0.085175 21501.321365 260.511372 9225.935878 1160.538301 2867.251457 57124 3650.308376
0.095000 0.095157 19049.552040 399.906796 6187.037201 128.435241 1203.912083 71620 3650.308376
0.105000 0.105162 16088.459553 304.499699 6629.953509 558.621527 2410.959876 87552 3650.308376
0.115000 0.115148 14159.401075 239.494847 4815.686620 32.916616 371.045741 104524 3650.308376
0.125000 0.125146 12758.465301 226.296044 4550.435756 146.609104 225.312421 124228 3650.308376
0.135000 0.135146 11416.877768 247.646343 4404.310974 55.833058 -403.287494 144204 3650.308376
0.145000 0.145132 10488.350072 117.299697 3735.709206 305.060475 358.935705 166492 3650.308376
0.155000 0.155114 9152.174031 144.585682 3074.247937 42.990234 312.245934 189964 3650.308376
0.165000 0.165102 8568.641351 122.977558 3251.642954 93.555242 -522.499561 215640 3650.308376
0.175000 0.175105 7648.824795 127.446854 2219.445862 161.329742 726.875696 242836 3650.308376
0.185000 0.185097 6992.978331 65.558082 1521.751157 123.109130 -385.501712 270556 3650.308376
0.195000 0.195085 6562.369902 79.241385 1529.655786 100.792723 432.332627 301084 3650.308376
0.205000 0.205080 6038.708530 113.102863 1490.427613 -23.130492 210.313901 332628 3650.308376
0.215000 0.215092 5638.920055 56.280124 1462.250686 59.254045 283.051140 367216 3650.308376
0.225000 0.225099 5246.912905 83.004966 1016.473032 36.302527 426.952411 400444 3650.308376
0.235000 0.235081 4864.561643 64.242533 947.080085 54.347473 246.739638 436500 3650.308376
0.245000 0.245077 4527.744379 57.575958 633.210216 37.958109 124.062844 475900 3650.308376
0.255000 0.255082 4207.702955 62.996017 739.519997 24.682793 116.110887 514900 3650.308376
0.265000 0.265074 3991.370260 45.702394 298.793768 69.074058 161.615628 555408 3650.308376
0.275000 0.275066 3734.388392 51.714225 209.938006 43.546749 328.066653 598684 3650.308376
0.285000 0.285066 3566.227571 45.613878 4.784683 -18.200171 198.816260 643228 3650.308376
0.295000 0.295058 3374.557275 58.439033 39.161379 43.080781 201.494099 688036 3650.308376
