#Data file /home/DATA/sbrieden/Patchy_dr12_mocks/prerecon/original/Patchy-Mocks-DR12CMASS-N-V6C-Portsmouth-mass_0097.dat
#Random file /home/DATA/sbrieden/Patchy_dr12_mocks/prerecon/original/Random-DR12CMASS-N-V6C-x20.dat
#Number of data elements used: 585576
#Number of random elements used: 11797448
#Effective number of data elements weighted by wcol: 585576.000000
#Effective number of random elements weighted by wcol: 11797448.000000
#Effective number of data elements weighted by wcol*wsys: 585576.000000
#Effective number of random elements weighted by wcol*wsys: 11797448.000000
#Effective redshift value from data 0.597914
#Effective redshift value from randoms 0.597992
#Size of the Box 3700.000000 Mpc/h
#Area of the survey used 6851.000000 deg^2
#Value of alpha: 0.049591
#Normalization using data file
#Normalization using density
#Normalization 11.004835
#Shot noise factor 1.000000
#Shot noise value 4928.533417
#Type of Computation: FFT
#Number of grid cells: 512
#Type of Mass Assigment: TSC
#Type of Yamamoto: GridCenter
#Number of Interlacing steps: 2
#Grid Correction: yes
#Value of Om=0.310000
#Quadrupole as L2
#Octopole as L3
#Hexadecapole as L2L2
#k-centerbin	 k-eff	 Monopole-Pshotnoise	 Dipole	 Quadrupole	 Octopole	 Hexadecapole	 number of modes	 Pshotnoise
0.005000 0.007485 44931.762104 -1530.184565 24474.690695 1836.545463 -759.364131 846 4928.533417
0.015000 0.016072 65482.110120 917.642361 34058.087928 4883.218915 8530.949247 6012 4928.533417
0.025000 0.025646 60913.786775 848.310012 21254.923118 4153.599061 14197.581860 16172 4928.533417
0.035000 0.035469 45529.506044 1201.283700 17819.223924 16.585048 -2667.003185 31764 4928.533417
0.045000 0.045378 37280.454563 686.150740 11589.386594 418.838957 -4929.080237 52164 4928.533417
0.055000 0.055280 31083.595356 245.049087 8720.949328 983.900069 -1046.824647 77396 4928.533417
0.065000 0.065232 27314.154529 400.235190 7260.118837 44.255663 2164.007852 108936 4928.533417
0.075000 0.075229 24119.998757 307.661901 9116.330907 462.907252 3381.381133 144980 4928.533417
0.085000 0.085193 20014.354907 304.267229 7349.975493 163.480456 -430.581159 184854 4928.533417
0.095000 0.095166 16878.947923 244.916824 5704.368217 108.225496 102.222235 232260 4928.533417
0.105000 0.105155 14695.935304 144.997833 5122.150534 313.117674 -457.121220 282884 4928.533417
0.115000 0.115131 13110.491038 172.910107 4189.411495 62.013064 35.896240 339084 4928.533417
0.125000 0.125124 11838.750775 101.217842 3944.203357 75.809364 345.491685 401864 4928.533417
0.135000 0.135125 10769.376549 114.919071 3199.494953 182.986230 972.864723 468084 4928.533417
0.145000 0.145120 9716.864618 110.274860 2848.681129 -24.084582 363.902410 539940 4928.533417
0.155000 0.155118 8532.604998 102.563413 2534.613827 168.941882 11.672663 617324 4928.533417
0.165000 0.165105 7821.845390 110.889600 2254.027904 9.845969 771.009523 697452 4928.533417
0.175000 0.175088 7104.822324 73.131709 1932.063162 35.524630 409.803101 785846 4928.533417
0.185000 0.185089 6596.479933 46.507542 1466.738007 133.062085 304.556526 879528 4928.533417
0.195000 0.195093 6182.467390 84.128604 1206.687746 -13.014498 612.542608 976596 4928.533417
0.205000 0.205084 5646.040489 76.070388 1376.949648 34.080417 316.760014 1077212 4928.533417
0.215000 0.215076 5243.089713 56.153219 1033.174822 36.045256 484.162153 1186908 4928.533417
0.225000 0.225076 4903.132237 69.405986 859.403643 18.115717 475.048851 1299452 4928.533417
0.235000 0.235073 4592.535622 52.004876 679.791698 28.473131 235.392010 1417356 4928.533417
0.245000 0.245067 4251.916233 61.288842 549.817451 19.995085 237.068937 1539600 4928.533417
0.255000 0.255064 4023.557953 56.870695 445.537983 14.829322 207.131219 1669820 4928.533417
0.265000 0.265061 3731.296743 62.488637 545.482807 -14.784309 210.123693 1801086 4928.533417
0.275000 0.275060 3530.330389 51.157009 226.433068 51.257908 156.067680 1942244 4928.533417
0.285000 0.285062 3352.393898 54.845157 176.319659 -8.993196 168.625014 2084796 4928.533417
0.295000 0.295057 3156.740825 52.345762 95.172689 16.877634 183.981479 2231868 4928.533417
