#Data file /home/DATA/sbrieden/Patchy_dr12_mocks/prerecon/original/Patchy-Mocks-DR12CMASS-N-V6C-Portsmouth-mass_0059.dat
#Random file /home/DATA/sbrieden/Patchy_dr12_mocks/prerecon/original/Random-DR12CMASS-N-V6C-x20.dat
#Number of data elements used: 585585
#Number of random elements used: 11797448
#Effective number of data elements weighted by wcol: 585585.000000
#Effective number of random elements weighted by wcol: 11797448.000000
#Effective number of data elements weighted by wcol*wsys: 585585.000000
#Effective number of random elements weighted by wcol*wsys: 11797448.000000
#Effective redshift value from data 0.598575
#Effective redshift value from randoms 0.597992
#Size of the Box 3700.000000 Mpc/h
#Area of the survey used 6851.000000 deg^2
#Value of alpha: 0.049804
#Normalization using data file
#Normalization using density
#Normalization 11.025736
#Shot noise factor 1.000000
#Shot noise value 4965.262747
#Type of Computation: FFT
#Number of grid cells: 512
#Type of Mass Assigment: TSC
#Type of Yamamoto: GridCenter
#Number of Interlacing steps: 2
#Grid Correction: yes
#Value of Om=0.310000
#Quadrupole as L2
#Octopole as L3
#Hexadecapole as L2L2
#k-centerbin	 k-eff	 Monopole-Pshotnoise	 Dipole	 Quadrupole	 Octopole	 Hexadecapole	 number of modes	 Pshotnoise
0.005000 0.007485 60769.529267 205.424104 30468.946697 3074.931114 -7966.674297 846 4965.262747
0.015000 0.016072 73628.308258 282.124984 27978.365582 2592.351606 -72.622461 6012 4965.262747
0.025000 0.025646 61126.669542 1747.069441 31314.422436 968.963697 -17410.377662 16172 4965.262747
0.035000 0.035469 46982.009542 979.562943 20709.444362 2279.663803 -2123.093283 31764 4965.262747
0.045000 0.045378 36892.856776 571.601697 12331.078621 710.715105 536.567646 52164 4965.262747
0.055000 0.055280 32214.022767 583.869685 14604.792149 597.367444 2601.199884 77396 4965.262747
0.065000 0.065232 27293.839282 384.244614 10554.084637 610.456121 2291.698143 108936 4965.262747
0.075000 0.075229 23492.523930 185.661697 8186.251430 292.539720 2145.697704 144980 4965.262747
0.085000 0.085193 20401.832752 356.856317 6192.528249 264.638987 1091.470890 184854 4965.262747
0.095000 0.095166 17809.566723 198.006134 6241.612507 146.356056 827.046180 232260 4965.262747
0.105000 0.105155 14887.587266 173.311659 4692.675110 213.868611 -735.461073 282884 4965.262747
0.115000 0.115131 13337.397871 159.904080 4376.856707 150.676188 553.236822 339084 4965.262747
0.125000 0.125124 12060.622378 107.455354 3290.429748 164.625803 508.175479 401864 4965.262747
0.135000 0.135125 11049.671531 115.718162 3268.457911 -3.884871 -19.337706 468084 4965.262747
0.145000 0.145120 9829.564651 131.415026 2767.186950 47.857395 -15.161300 539940 4965.262747
0.155000 0.155118 8548.569052 116.725337 2877.098935 67.204829 451.053046 617324 4965.262747
0.165000 0.165105 7908.081315 89.398884 2431.929040 72.581298 89.320553 697452 4965.262747
0.175000 0.175088 7221.428824 71.564428 1802.822741 79.262952 217.220591 785846 4965.262747
0.185000 0.185089 6597.291472 65.674404 1777.246667 51.288922 355.220080 879528 4965.262747
0.195000 0.195093 6273.679167 68.061489 1468.842219 41.960592 278.988605 976596 4965.262747
0.205000 0.205084 5753.044924 72.388062 1220.194777 36.899627 13.225812 1077212 4965.262747
0.215000 0.215076 5304.797497 78.022354 973.463934 7.982502 391.365693 1186908 4965.262747
0.225000 0.225076 4936.497375 52.817268 893.147559 34.480882 99.527171 1299452 4965.262747
0.235000 0.235073 4568.776679 66.812463 779.391893 13.804665 137.353226 1417356 4965.262747
0.245000 0.245067 4341.705775 47.852178 581.948619 34.442605 322.459115 1539600 4965.262747
0.255000 0.255064 4099.515712 66.165133 555.951045 5.505946 183.860181 1669820 4965.262747
0.265000 0.265061 3821.636271 57.659882 454.703075 7.848974 254.783880 1801086 4965.262747
0.275000 0.275060 3659.091849 61.003145 376.942281 23.104723 269.677488 1942244 4965.262747
0.285000 0.285062 3329.409311 54.226519 278.103830 21.051988 181.370021 2084796 4965.262747
0.295000 0.295057 3172.384851 61.341770 258.565572 -6.864167 156.475331 2231868 4965.262747
