#Data file /home/DATA/sbrieden/Patchy_dr12_mocks/prerecon/original/Patchy-Mocks-DR12LOWZ-N-V5C-Portsmouth-mass_0061.dat
#Random file /home/DATA/sbrieden/Patchy_dr12_mocks/prerecon/original/Random-DR12LOWZ-N-V5C-x20.dat
#Number of data elements used: 233586
#Number of random elements used: 4685323
#Effective number of data elements weighted by wcol: 233586.000000
#Effective number of random elements weighted by wcol: 4685323.000000
#Effective number of data elements weighted by wcol*wsys: 233586.000000
#Effective number of random elements weighted by wcol*wsys: 4685323.000000
#Effective redshift value from data 0.330112
#Effective redshift value from randoms 0.330058
#Size of the Box 2500.000000 Mpc/h
#Area of the survey used 5826.000000 deg^2
#Value of alpha: 0.049847
#Normalization using data file
#Normalization using density
#Normalization 4.329932
#Shot noise factor 1.000000
#Shot noise value 3655.626971
#Type of Computation: FFT
#Number of grid cells: 512
#Type of Mass Assigment: TSC
#Type of Yamamoto: GridCenter
#Number of Interlacing steps: 2
#Grid Correction: yes
#Value of Om=0.310000
#Quadrupole as L2
#Octopole as L3
#Hexadecapole as L2L2
#k-centerbin	 k-eff	 Monopole-Pshotnoise	 Dipole	 Quadrupole	 Octopole	 Hexadecapole	 number of modes	 Pshotnoise
0.005000 0.007385 68792.361029 -6556.548819 12653.916996 -19489.375427 -78985.922379 250 3655.626971
0.015000 0.016012 71851.875370 -1603.358289 24906.979888 2553.280886 -45717.229987 1852 3655.626971
0.025000 0.025646 59481.234167 3430.928132 12454.920793 -34.814948 -15617.548611 5020 3655.626971
0.035000 0.035469 48901.192331 903.508985 11439.698064 572.516930 2536.750957 9756 3655.626971
0.045000 0.045368 40688.403454 1505.046430 15830.774596 1422.330795 -4220.591343 16108 3655.626971
0.055000 0.055314 34737.533879 930.785639 13999.449751 1806.702961 6017.540984 24064 3655.626971
0.065000 0.065258 29493.099891 408.987048 12828.322382 469.526093 9464.597752 33396 3655.626971
0.075000 0.075209 25860.383038 621.402297 10847.944797 830.174810 -884.625774 44596 3655.626971
0.085000 0.085175 21355.270434 544.032032 9219.434256 330.948589 -1240.130828 57124 3655.626971
0.095000 0.095157 18146.572298 415.321379 7354.600092 701.939230 -469.115400 71620 3655.626971
0.105000 0.105162 15091.458784 180.251779 4826.429732 539.895996 1163.173512 87552 3655.626971
0.115000 0.115148 13654.505559 246.597243 3695.421072 -16.101993 -500.406058 104524 3655.626971
0.125000 0.125146 12220.398022 198.833671 3121.800375 277.684003 1010.782143 124228 3655.626971
0.135000 0.135146 11266.677225 140.633029 2614.210671 -79.948257 -1231.079070 144204 3655.626971
0.145000 0.145132 10321.351966 171.697413 2970.253807 222.205630 379.387724 166492 3655.626971
0.155000 0.155114 9349.373850 145.488212 2759.242570 88.482989 677.715747 189964 3655.626971
0.165000 0.165102 8333.547781 116.571248 2403.534457 149.614081 280.968534 215640 3655.626971
0.175000 0.175105 7717.741192 88.917133 1744.662558 88.218484 859.014909 242836 3655.626971
0.185000 0.185097 6992.695330 122.493948 1950.772135 54.109478 624.166244 270556 3655.626971
0.195000 0.195085 6472.487635 98.055938 1411.479516 110.426129 340.849419 301084 3655.626971
0.205000 0.205080 5887.263634 76.820470 1180.408370 -4.783775 352.730798 332628 3655.626971
0.215000 0.215092 5561.801356 67.908285 1466.430225 74.499322 982.902315 367216 3655.626971
0.225000 0.225099 5172.657082 56.664817 1042.858180 36.794911 616.713818 400444 3655.626971
0.235000 0.235081 4855.902070 82.055210 708.608163 37.876536 144.939723 436500 3655.626971
0.245000 0.245077 4501.203823 48.503937 545.515643 16.052036 -23.224830 475900 3655.626971
0.255000 0.255082 4226.057189 84.480008 585.893927 0.326870 278.521322 514900 3655.626971
0.265000 0.265074 4009.459255 39.211739 566.760253 57.370868 -69.468009 555408 3655.626971
0.275000 0.275066 3724.072075 60.064948 276.229601 2.907651 115.547251 598684 3655.626971
0.285000 0.285066 3444.656492 57.032475 206.127081 -2.268021 17.862997 643228 3655.626971
0.295000 0.295058 3219.199968 59.796184 18.382882 60.408746 227.570767 688036 3655.626971
