#Data file /home/DATA/sbrieden/Patchy_dr12_mocks/prerecon/original/Patchy-Mocks-DR12LOWZ-S-V5C-Portsmouth-mass_0019.dat
#Random file /home/DATA/sbrieden/Patchy_dr12_mocks/prerecon/original/Random-DR12LOWZ-S-V5C-x20.dat
#Number of data elements used: 100918
#Number of random elements used: 2007904
#Effective number of data elements weighted by wcol: 100918.000000
#Effective number of random elements weighted by wcol: 2007904.000000
#Effective number of data elements weighted by wcol*wsys: 100918.000000
#Effective number of random elements weighted by wcol*wsys: 2007904.000000
#Effective redshift value from data 0.330522
#Effective redshift value from randoms 0.330155
#Size of the Box 2500.000000 Mpc/h
#Area of the survey used 2501.000000 deg^2
#Value of alpha: 0.050198
#Normalization using data file
#Normalization using density
#Normalization 1.869377
#Shot noise factor 1.000000
#Shot noise value 3652.557957
#Type of Computation: FFT
#Number of grid cells: 512
#Type of Mass Assigment: TSC
#Type of Yamamoto: GridCenter
#Number of Interlacing steps: 2
#Grid Correction: yes
#Value of Om=0.310000
#Quadrupole as L2
#Octopole as L3
#Hexadecapole as L2L2
#k-centerbin	 k-eff	 Monopole-Pshotnoise	 Dipole	 Quadrupole	 Octopole	 Hexadecapole	 number of modes	 Pshotnoise
0.005000 0.007385 65429.025791 -15570.546372 -48960.332821 -24238.029056 -18476.194809 250 3652.557957
0.015000 0.016012 84314.920505 5463.267549 13954.936176 2016.086231 -2282.561150 1852 3652.557957
0.025000 0.025646 57787.448447 2566.414426 21580.436501 8555.999825 15370.189891 5020 3652.557957
0.035000 0.035469 44123.867041 676.916502 22971.446596 3048.787578 20457.923200 9756 3652.557957
0.045000 0.045368 44234.774735 1562.361735 18580.801100 770.303427 7426.372604 16108 3652.557957
0.055000 0.055314 33711.333115 202.277611 8822.999121 1609.141774 -1880.782330 24064 3652.557957
0.065000 0.065258 29710.649065 680.317401 7357.166426 164.110145 -2894.120622 33396 3652.557957
0.075000 0.075209 25189.693143 872.462733 9295.892712 313.407450 -1740.726861 44596 3652.557957
0.085000 0.085175 22110.601654 360.031695 7751.043236 764.481788 -1591.727163 57124 3652.557957
0.095000 0.095157 17278.868411 378.881880 2400.549503 304.385240 450.961126 71620 3652.557957
0.105000 0.105162 15825.607330 320.171596 4930.918774 118.196640 531.773162 87552 3652.557957
0.115000 0.115148 13851.316033 84.213950 3824.250747 702.074845 1019.168332 104524 3652.557957
0.125000 0.125146 12388.129420 286.035337 2085.257386 -321.007194 131.602957 124228 3652.557957
0.135000 0.135146 11228.183664 116.431617 2937.804927 13.362817 -360.746847 144204 3652.557957
0.145000 0.145132 10195.876506 183.209671 2664.362394 211.283898 290.128436 166492 3652.557957
0.155000 0.155114 9613.944122 97.424441 1946.177842 -92.129068 104.714969 189964 3652.557957
0.165000 0.165102 8613.655405 162.627373 2073.031554 282.502669 459.631535 215640 3652.557957
0.175000 0.175105 7687.210272 149.025134 1932.005249 -92.423904 -79.029329 242836 3652.557957
0.185000 0.185097 7048.296139 39.655493 1652.179312 288.044184 284.289430 270556 3652.557957
0.195000 0.195085 6725.894253 91.502932 1091.918144 43.644501 1090.683450 301084 3652.557957
0.205000 0.205080 6186.584520 106.061300 1419.216424 4.792472 1162.703412 332628 3652.557957
0.215000 0.215092 5750.747613 37.852785 824.427731 108.587884 407.417942 367216 3652.557957
0.225000 0.225099 5365.549797 103.390823 732.263468 -46.700776 529.253930 400444 3652.557957
0.235000 0.235081 4824.738357 66.566371 686.028663 8.352005 654.036735 436500 3652.557957
0.245000 0.245077 4649.872580 22.227873 358.438253 177.649372 28.630580 475900 3652.557957
0.255000 0.255082 4394.381378 76.056428 292.650593 -77.858582 602.112209 514900 3652.557957
0.265000 0.265074 4071.334321 89.768591 346.553389 41.283014 166.532770 555408 3652.557957
0.275000 0.275066 3682.099520 42.706992 148.070772 -63.975797 -52.548660 598684 3652.557957
0.285000 0.285066 3492.916814 55.808307 73.083253 53.355722 -208.363334 643228 3652.557957
0.295000 0.295058 3387.616173 37.132957 115.197984 17.424719 295.359171 688036 3652.557957
