#Data file /home/DATA/sbrieden/Patchy_dr12_mocks/prerecon/original/Patchy-Mocks-DR12CMASS-N-V6C-Portsmouth-mass_0015.dat
#Random file /home/DATA/sbrieden/Patchy_dr12_mocks/prerecon/original/Random-DR12CMASS-N-V6C-x20.dat
#Number of data elements used: 584409
#Number of random elements used: 11797448
#Effective number of data elements weighted by wcol: 584409.000000
#Effective number of random elements weighted by wcol: 11797448.000000
#Effective number of data elements weighted by wcol*wsys: 584409.000000
#Effective number of random elements weighted by wcol*wsys: 11797448.000000
#Effective redshift value from data 0.598468
#Effective redshift value from randoms 0.597992
#Size of the Box 3700.000000 Mpc/h
#Area of the survey used 6851.000000 deg^2
#Value of alpha: 0.049581
#Normalization using data file
#Normalization using density
#Normalization 10.985216
#Shot noise factor 1.000000
#Shot noise value 4952.206536
#Type of Computation: FFT
#Number of grid cells: 512
#Type of Mass Assigment: TSC
#Type of Yamamoto: GridCenter
#Number of Interlacing steps: 2
#Grid Correction: yes
#Value of Om=0.310000
#Quadrupole as L2
#Octopole as L3
#Hexadecapole as L2L2
#k-centerbin	 k-eff	 Monopole-Pshotnoise	 Dipole	 Quadrupole	 Octopole	 Hexadecapole	 number of modes	 Pshotnoise
0.005000 0.007485 40976.063317 -4808.227406 6659.970026 6057.710833 10096.936796 846 4952.206536
0.015000 0.016072 64946.811677 376.602243 27818.702397 1964.070909 196.452115 6012 4952.206536
0.025000 0.025646 60204.867915 809.219839 21884.758420 2867.556876 8995.780514 16172 4952.206536
0.035000 0.035469 45468.785462 1241.877271 17074.506036 1012.356200 -873.043894 31764 4952.206536
0.045000 0.045378 35501.335709 706.258927 17134.705381 727.543031 2031.651266 52164 4952.206536
0.055000 0.055280 30927.800725 258.155202 11588.388160 916.632604 4495.736095 77396 4952.206536
0.065000 0.065232 28037.160034 403.973053 8589.670722 312.785226 -383.554355 108936 4952.206536
0.075000 0.075229 23438.400121 251.540963 8881.819994 287.336291 1513.921140 144980 4952.206536
0.085000 0.085193 20173.867391 397.575943 7092.539037 203.497480 -495.034988 184854 4952.206536
0.095000 0.095166 16487.161594 146.016158 6369.432556 412.895764 1420.207972 232260 4952.206536
0.105000 0.105155 14527.143509 244.422484 5245.181494 36.170614 1167.225733 282884 4952.206536
0.115000 0.115131 12729.939211 91.209422 4672.568404 177.534944 12.461970 339084 4952.206536
0.125000 0.125124 11731.545758 116.640408 3426.285833 188.014369 868.313839 401864 4952.206536
0.135000 0.135125 10683.830897 131.542770 2983.043282 48.814068 1099.104255 468084 4952.206536
0.145000 0.145120 9542.310501 84.303530 2486.988518 93.131665 456.025147 539940 4952.206536
0.155000 0.155118 8614.118505 134.192908 2257.330589 8.051652 712.119006 617324 4952.206536
0.165000 0.165105 7692.224030 84.050477 2308.516934 55.028901 210.937422 697452 4952.206536
0.175000 0.175088 7195.762240 70.791599 1858.947459 48.782192 279.550832 785846 4952.206536
0.185000 0.185089 6645.429031 61.881122 1765.054660 63.199797 181.726362 879528 4952.206536
0.195000 0.195093 6229.689591 85.404323 1317.735278 36.271245 382.492913 976596 4952.206536
0.205000 0.205084 5724.329316 56.474563 1212.217410 44.843182 334.446939 1077212 4952.206536
0.215000 0.215076 5261.885536 75.285730 971.456358 -16.551016 -56.117937 1186908 4952.206536
0.225000 0.225076 4905.903558 59.244398 1007.106572 28.070744 199.145255 1299452 4952.206536
0.235000 0.235073 4628.732669 66.777778 826.151354 50.585841 265.748855 1417356 4952.206536
0.245000 0.245067 4335.234155 62.765506 581.423869 -6.515032 188.275224 1539600 4952.206536
0.255000 0.255064 3990.935278 50.054302 494.372232 38.959415 189.648180 1669820 4952.206536
0.265000 0.265061 3757.162988 55.112290 518.924847 20.796216 260.504014 1801086 4952.206536
0.275000 0.275060 3581.315987 62.158978 370.226929 4.086777 362.055326 1942244 4952.206536
0.285000 0.285062 3373.795320 56.400685 196.357687 17.413219 304.703721 2084796 4952.206536
0.295000 0.295057 3119.629417 56.486867 177.923382 7.316939 306.901723 2231868 4952.206536
