#Data file /home/DATA/sbrieden/Patchy_dr12_mocks/prerecon/original/Patchy-Mocks-DR12CMASS-N-V6C-Portsmouth-mass_0016.dat
#Random file /home/DATA/sbrieden/Patchy_dr12_mocks/prerecon/original/Random-DR12CMASS-N-V6C-x20.dat
#Number of data elements used: 592707
#Number of random elements used: 11797448
#Effective number of data elements weighted by wcol: 592707.000000
#Effective number of random elements weighted by wcol: 11797448.000000
#Effective number of data elements weighted by wcol*wsys: 592707.000000
#Effective number of random elements weighted by wcol*wsys: 11797448.000000
#Effective redshift value from data 0.597709
#Effective redshift value from randoms 0.597992
#Size of the Box 3700.000000 Mpc/h
#Area of the survey used 6851.000000 deg^2
#Value of alpha: 0.050190
#Normalization using data file
#Normalization using density
#Normalization 11.137700
#Shot noise factor 1.000000
#Shot noise value 4931.364249
#Type of Computation: FFT
#Number of grid cells: 512
#Type of Mass Assigment: TSC
#Type of Yamamoto: GridCenter
#Number of Interlacing steps: 2
#Grid Correction: yes
#Value of Om=0.310000
#Quadrupole as L2
#Octopole as L3
#Hexadecapole as L2L2
#k-centerbin	 k-eff	 Monopole-Pshotnoise	 Dipole	 Quadrupole	 Octopole	 Hexadecapole	 number of modes	 Pshotnoise
0.005000 0.007485 67453.821282 -6663.167218 -12960.969254 4176.243423 4205.759486 846 4931.364249
0.015000 0.016072 68556.123763 2521.656269 34559.263380 -3077.127157 -15624.078352 6012 4931.364249
0.025000 0.025646 60880.117128 1094.079288 23114.777020 2457.604064 -15749.316107 16172 4931.364249
0.035000 0.035469 48911.080675 821.010732 15203.948644 117.743718 -6344.113988 31764 4931.364249
0.045000 0.045378 40014.083274 695.805523 17388.402722 1342.067034 5053.185527 52164 4931.364249
0.055000 0.055280 33098.687803 493.517526 14576.410638 866.733133 871.548532 77396 4931.364249
0.065000 0.065232 28636.331384 347.064198 9915.868713 464.373766 2214.883076 108936 4931.364249
0.075000 0.075229 24189.298531 392.483444 7892.025711 269.650107 313.474530 144980 4931.364249
0.085000 0.085193 20676.261195 274.015359 8114.925105 40.200856 120.218973 184854 4931.364249
0.095000 0.095166 17556.344043 259.971226 7037.114943 360.345436 -562.224686 232260 4931.364249
0.105000 0.105155 14749.052952 197.810067 5667.898758 109.129848 -598.546312 282884 4931.364249
0.115000 0.115131 13169.462535 148.104068 4706.989246 112.125105 740.176993 339084 4931.364249
0.125000 0.125124 11994.204836 85.229210 4103.421784 320.951271 614.052630 401864 4931.364249
0.135000 0.135125 10743.381510 114.199549 2735.003579 65.898960 286.215939 468084 4931.364249
0.145000 0.145120 9604.032362 123.076625 2598.867944 66.667518 -88.135450 539940 4931.364249
0.155000 0.155118 8659.738157 125.401193 2974.825364 -46.665247 25.716056 617324 4931.364249
0.165000 0.165105 7836.138338 78.683584 2348.648207 119.714613 -54.758380 697452 4931.364249
0.175000 0.175088 7124.654097 97.745987 2212.772486 -14.456235 87.671979 785846 4931.364249
0.185000 0.185089 6683.306236 57.045064 1808.971863 87.302487 44.401704 879528 4931.364249
0.195000 0.195093 6229.006045 81.083988 1603.138846 34.151369 9.834336 976596 4931.364249
0.205000 0.205084 5734.262527 48.168096 1413.122718 98.380334 295.517795 1077212 4931.364249
0.215000 0.215076 5271.116276 82.351837 1128.756539 -15.677857 153.885859 1186908 4931.364249
0.225000 0.225076 4936.660672 52.228856 1188.599703 37.617797 257.113183 1299452 4931.364249
0.235000 0.235073 4647.422060 55.477419 995.395315 49.118387 187.352543 1417356 4931.364249
0.245000 0.245067 4397.946265 61.789110 768.362771 3.681817 248.998552 1539600 4931.364249
0.255000 0.255064 4115.369894 60.911913 667.998197 44.891885 177.637247 1669820 4931.364249
0.265000 0.265061 3742.744488 61.057458 449.788681 1.987451 179.467630 1801086 4931.364249
0.275000 0.275060 3567.446882 68.792360 451.205699 -6.942039 202.973640 1942244 4931.364249
0.285000 0.285062 3381.555712 46.772051 409.785199 18.072704 110.619192 2084796 4931.364249
0.295000 0.295057 3176.751055 63.684644 269.366641 3.946293 149.454805 2231868 4931.364249
