#Data file /home/DATA/sbrieden/Patchy_dr12_mocks/prerecon/original/Patchy-Mocks-DR12LOWZ-N-V5C-Portsmouth-mass_0058.dat
#Random file /home/DATA/sbrieden/Patchy_dr12_mocks/prerecon/original/Random-DR12LOWZ-N-V5C-x20.dat
#Number of data elements used: 235441
#Number of random elements used: 4685323
#Effective number of data elements weighted by wcol: 235441.000000
#Effective number of random elements weighted by wcol: 4685323.000000
#Effective number of data elements weighted by wcol*wsys: 235441.000000
#Effective number of random elements weighted by wcol*wsys: 4685323.000000
#Effective redshift value from data 0.330220
#Effective redshift value from randoms 0.330058
#Size of the Box 2500.000000 Mpc/h
#Area of the survey used 5826.000000 deg^2
#Value of alpha: 0.050315
#Normalization using data file
#Normalization using density
#Normalization 4.368992
#Shot noise factor 1.000000
#Shot noise value 3662.410218
#Type of Computation: FFT
#Number of grid cells: 512
#Type of Mass Assigment: TSC
#Type of Yamamoto: GridCenter
#Number of Interlacing steps: 2
#Grid Correction: yes
#Value of Om=0.310000
#Quadrupole as L2
#Octopole as L3
#Hexadecapole as L2L2
#k-centerbin	 k-eff	 Monopole-Pshotnoise	 Dipole	 Quadrupole	 Octopole	 Hexadecapole	 number of modes	 Pshotnoise
0.005000 0.007385 54452.981784 956.498192 5859.649758 -20518.133525 -52789.465320 250 3662.410218
0.015000 0.016012 68631.670787 2586.359431 16599.033318 2236.982677 25217.000249 1852 3662.410218
0.025000 0.025646 66965.033915 1379.150289 27875.819889 8650.638711 10403.943159 5020 3662.410218
0.035000 0.035469 51817.566909 1058.848453 17592.070299 70.203147 1673.126139 9756 3662.410218
0.045000 0.045368 43241.025736 1523.748470 22295.979334 1935.062417 1934.644165 16108 3662.410218
0.055000 0.055314 34269.385725 810.936401 18862.150289 2446.376152 4934.820839 24064 3662.410218
0.065000 0.065258 29138.032420 744.876433 12018.449218 732.160298 -1210.501228 33396 3662.410218
0.075000 0.075209 24987.502699 662.625625 7929.154575 188.059555 -3564.837450 44596 3662.410218
0.085000 0.085175 22164.152819 344.663477 8425.311436 887.281359 -456.992122 57124 3662.410218
0.095000 0.095157 17759.768776 516.156767 5271.173230 336.131053 1155.700020 71620 3662.410218
0.105000 0.105162 15700.060967 197.205874 5219.093955 143.607583 789.870628 87552 3662.410218
0.115000 0.115148 13963.317605 160.240115 4431.134282 447.195258 588.940090 104524 3662.410218
0.125000 0.125146 12667.265850 207.202466 3807.263855 60.260449 1827.332036 124228 3662.410218
0.135000 0.135146 11924.570557 229.622415 3985.496851 82.724812 -216.638577 144204 3662.410218
0.145000 0.145132 10228.480515 154.117513 3164.151146 175.077291 -58.452178 166492 3662.410218
0.155000 0.155114 9139.339246 154.343869 2365.069244 123.896603 197.969671 189964 3662.410218
0.165000 0.165102 8542.473164 106.703980 1630.349568 97.334346 -340.527102 215640 3662.410218
0.175000 0.175105 7544.184697 93.194613 1632.406361 93.266269 18.472299 242836 3662.410218
0.185000 0.185097 7080.045999 94.050392 1436.801155 12.154164 120.747760 270556 3662.410218
0.195000 0.195085 6720.164262 103.988624 1836.833112 131.406058 696.549449 301084 3662.410218
0.205000 0.205080 6013.748581 76.104107 962.199165 56.212313 889.378807 332628 3662.410218
0.215000 0.215092 5501.332817 87.201298 956.783116 -33.083269 503.153640 367216 3662.410218
0.225000 0.225099 5214.046141 72.701396 786.639269 112.009402 360.802930 400444 3662.410218
0.235000 0.235081 4738.230597 73.188269 680.131209 -4.042140 58.574589 436500 3662.410218
0.245000 0.245077 4415.196399 48.205975 696.536059 20.349333 339.417525 475900 3662.410218
0.255000 0.255082 4206.509530 65.549741 449.289324 6.327023 517.307652 514900 3662.410218
0.265000 0.265074 3884.476218 56.841128 312.023099 35.033877 159.833941 555408 3662.410218
0.275000 0.275066 3731.812065 62.354858 388.863355 -50.854761 77.760086 598684 3662.410218
0.285000 0.285066 3523.815516 49.044960 388.577337 100.318994 126.218954 643228 3662.410218
0.295000 0.295058 3232.668770 38.770876 209.750635 -7.854596 426.934699 688036 3662.410218
