#Data file /home/DATA/sbrieden/Patchy_dr12_mocks/prerecon/original/Patchy-Mocks-DR12CMASS-S-V6C-Portsmouth-mass_0071.dat
#Random file /home/DATA/sbrieden/Patchy_dr12_mocks/prerecon/original/Random-DR12CMASS-S-V6C-x20.dat
#Number of data elements used: 217209
#Number of random elements used: 4288842
#Effective number of data elements weighted by wcol: 217209.000000
#Effective number of random elements weighted by wcol: 4288842.000000
#Effective number of data elements weighted by wcol*wsys: 217209.000000
#Effective number of random elements weighted by wcol*wsys: 4288842.000000
#Effective redshift value from data 0.596694
#Effective redshift value from randoms 0.597190
#Size of the Box 3700.000000 Mpc/h
#Area of the survey used 2525.000000 deg^2
#Value of alpha: 0.050597
#Normalization using data file
#Normalization using density
#Normalization 4.119177
#Shot noise factor 1.000000
#Shot noise value 4938.974176
#Type of Computation: FFT
#Number of grid cells: 512
#Type of Mass Assigment: TSC
#Type of Yamamoto: GridCenter
#Number of Interlacing steps: 2
#Grid Correction: yes
#Value of Om=0.310000
#Quadrupole as L2
#Octopole as L3
#Hexadecapole as L2L2
#k-centerbin	 k-eff	 Monopole-Pshotnoise	 Dipole	 Quadrupole	 Octopole	 Hexadecapole	 number of modes	 Pshotnoise
0.005000 0.007485 77273.052974 1322.853372 57351.624439 14173.963277 14013.314520 846 4938.974176
0.015000 0.016072 71203.165803 3554.227141 38353.886134 10166.566327 27894.248972 6012 4938.974176
0.025000 0.025646 46426.877141 679.912819 17669.727227 5460.144612 23612.827993 16172 4938.974176
0.035000 0.035469 45366.426572 518.143962 18289.246360 644.310076 20537.746334 31764 4938.974176
0.045000 0.045378 35508.548286 665.389257 15916.725329 1485.471304 3051.850749 52164 4938.974176
0.055000 0.055280 30237.821602 290.828397 10713.741453 361.672858 2142.285074 77396 4938.974176
0.065000 0.065232 27583.943021 365.440699 10621.466938 387.308717 1220.504001 108936 4938.974176
0.075000 0.075229 23614.168421 442.333472 9299.528271 116.050687 1302.157520 144980 4938.974176
0.085000 0.085193 18946.564676 223.096543 8057.593240 409.655578 -727.739982 184854 4938.974176
0.095000 0.095166 16927.048143 165.997414 5748.670805 217.702448 -1927.640769 232260 4938.974176
0.105000 0.105155 14952.820938 184.495629 5294.181450 72.028476 -2309.684631 282884 4938.974176
0.115000 0.115131 13435.484839 208.271248 6192.217861 200.779639 532.645603 339084 4938.974176
0.125000 0.125124 12066.733971 81.372938 3894.284563 202.887580 376.516956 401864 4938.974176
0.135000 0.135125 10555.118654 126.266921 2903.310917 95.673206 154.156849 468084 4938.974176
0.145000 0.145120 9812.944012 106.869704 2571.111304 3.188486 173.687833 539940 4938.974176
0.155000 0.155118 8777.107997 112.518890 2573.694277 143.772605 550.285907 617324 4938.974176
0.165000 0.165105 7872.151117 75.637337 2399.547630 39.304773 -169.219936 697452 4938.974176
0.175000 0.175088 7055.199031 104.755597 1618.586199 1.025894 -94.715462 785846 4938.974176
0.185000 0.185089 6652.974776 62.804430 1706.632829 95.563958 638.150797 879528 4938.974176
0.195000 0.195093 6213.218347 84.300388 1648.400233 -18.266331 309.387496 976596 4938.974176
0.205000 0.205084 5797.022122 37.963955 1311.293776 110.840711 308.779552 1077212 4938.974176
0.215000 0.215076 5419.688799 83.074576 1010.846687 -30.033927 -55.693794 1186908 4938.974176
0.225000 0.225076 5054.633586 63.922985 1195.009819 61.150446 488.127286 1299452 4938.974176
0.235000 0.235073 4634.375456 56.425918 749.593102 27.455270 367.874850 1417356 4938.974176
0.245000 0.245067 4303.872033 62.462221 584.549043 14.551409 257.247554 1539600 4938.974176
0.255000 0.255064 4106.311116 49.231739 452.205681 40.652983 459.309478 1669820 4938.974176
0.265000 0.265061 3843.921740 67.862817 548.340026 21.982805 454.228297 1801086 4938.974176
0.275000 0.275060 3536.654159 61.140749 147.954921 -23.215473 152.354209 1942244 4938.974176
0.285000 0.285062 3326.726535 49.859500 195.527538 31.233926 77.730247 2084796 4938.974176
0.295000 0.295057 3179.244852 61.234060 -86.568346 0.702787 -19.498090 2231868 4938.974176
