#Data file /home/DATA/sbrieden/BOSS_data_v5/lowz/galaxy_DR12v5_LOWZ_South_t2_f0693b1850s10.dat
#Random file /home/DATA/sbrieden/BOSS_data_v5/lowz/galaxy_DR12v5_LOWZ_South_t2_f0693b1850s10.ran
#Number of data elements used: 105061
#Number of random elements used: 5138047
#Effective number of data elements weighted by wcol: 109008.000000
#Effective number of random elements weighted by wcol: 5138047.000000
#Effective number of data elements weighted by wcol*wsys: 109008.000000
#Effective number of random elements weighted by wcol*wsys: 5138047.000000
#Effective redshift value from data 0.331162
#Effective redshift value from randoms 0.331151
#Size of the Box 2500.000000 Mpc/h
#Area of the survey used 2501.000000 deg^2
#Value of alpha: 0.021229
#Normalization using data file
#Normalization using density
#Normalization 1.930166
#Shot noise factor 1.000000
#Shot noise value 3535.847179
#Type of Computation: FFT
#Number of grid cells: 512
#Type of Mass Assigment: TSC
#Type of Yamamoto: GridCenter
#Number of Interlacing steps: 2
#Grid Correction: yes
#Value of Om=0.310000
#Quadrupole as L2
#Octopole as L3
#Hexadecapole as L4
#k-centerbin	 k-eff	 Monopole-Pshotnoise	 Dipole	 Quadrupole	 Octopole	 Hexadecapole	 number of modes	 Pshotnoise
0.005000 0.007385 86465.800697 -2945.609237 -75954.159044 -40275.723017 8157.174243 250 3535.847179
0.015000 0.016012 63255.246639 355.939311 -18639.850405 -895.760444 14426.663775 1852 3535.847179
0.025000 0.025646 49344.933917 628.210168 -289.304322 -5715.546628 -344.808737 5020 3535.847179
0.035000 0.035469 36802.414161 1422.927369 -2613.024380 1667.400188 -7558.342400 9756 3535.847179
0.045000 0.045368 29995.639199 632.485528 -12456.095927 -943.874487 902.773766 16108 3535.847179
0.055000 0.055314 25475.479260 142.303720 -9304.765644 -407.948826 933.277628 24064 3535.847179
0.065000 0.065258 22533.399897 814.556931 -2562.854589 -1547.700837 1027.552971 33396 3535.847179
0.075000 0.075209 18721.275533 246.146565 1352.627047 719.664486 789.177951 44596 3535.847179
0.085000 0.085175 14326.519070 332.443766 -2536.921392 -211.471466 359.786909 57124 3535.847179
0.095000 0.095157 12965.035999 266.898246 -2100.325236 252.986256 1143.370151 71620 3535.847179
0.105000 0.105162 10818.423918 262.178472 -1993.605376 -380.251763 383.909086 87552 3535.847179
0.115000 0.115148 9647.925194 79.231748 -601.472446 122.873861 1446.678084 104524 3535.847179
0.125000 0.125146 9378.815798 139.251145 -608.623532 -127.695133 1737.346448 124228 3535.847179
0.135000 0.135146 8115.016505 122.522297 -617.656863 -58.642032 913.655830 144204 3535.847179
0.145000 0.145132 7297.058528 111.417417 -340.672825 94.536598 749.526469 166492 3535.847179
0.155000 0.155114 6574.230793 109.152012 -678.330043 -105.224836 483.838052 189964 3535.847179
0.165000 0.165102 5860.211268 150.456356 -315.118134 -91.233785 331.895188 215640 3535.847179
0.175000 0.175105 5263.560857 23.212093 -419.480323 116.792323 124.365124 242836 3535.847179
0.185000 0.185097 5142.523545 44.816132 -388.917141 1.419135 523.703596 270556 3535.847179
0.195000 0.195085 4725.156992 130.178773 -521.611515 -20.154368 752.424525 301084 3535.847179
0.205000 0.205080 3956.604778 24.022990 -211.106159 46.311241 393.191331 332628 3535.847179
0.215000 0.215092 3689.600626 103.650921 -340.139668 -54.309068 372.460300 367216 3535.847179
0.225000 0.225099 3416.961518 42.615526 -349.046332 3.752665 282.807848 400444 3535.847179
0.235000 0.235081 3070.936820 49.276050 -466.655264 83.580188 395.648999 436500 3535.847179
0.245000 0.245077 2871.521342 27.757915 -833.363952 0.015130 566.114339 475900 3535.847179
0.255000 0.255082 2721.244520 47.410782 -756.966566 -23.415031 293.290684 514900 3535.847179
0.265000 0.265074 2543.188748 56.156080 -599.946367 -22.764409 574.927627 555408 3535.847179
0.275000 0.275066 2278.418682 43.533604 -500.983530 30.121366 713.043708 598684 3535.847179
0.285000 0.285066 2187.615578 27.002777 -696.145760 -2.152470 449.132298 643228 3535.847179
0.295000 0.295058 2072.937738 32.265581 -862.854974 6.837524 392.429486 688036 3535.847179
0.305000 0.305062 1971.089825 46.291319 -752.112162 -38.348007 445.771954 738228 3535.847179
0.315000 0.315069 1773.705749 34.949926 -646.530909 -11.444373 554.342483 785044 3535.847179
0.325000 0.325061 1747.847759 40.256051 -599.123882 0.511835 516.819929 835840 3535.847179
0.335000 0.335058 1605.624004 26.130847 -646.355116 29.810028 582.588859 888468 3535.847179
0.345000 0.345042 1500.104863 36.729578 -738.681436 -32.184240 444.140003 939556 3535.847179
0.355000 0.355041 1479.878611 36.259684 -793.441000 -11.435165 397.984137 1000444 3535.847179
0.365000 0.365047 1379.585559 34.740638 -650.432691 -7.322570 424.084721 1053124 3535.847179
0.375000 0.375041 1284.031204 32.846631 -663.480038 19.915998 520.901687 1113696 3535.847179
0.385000 0.385041 1276.734835 30.703879 -757.079277 0.537398 609.503735 1173172 3535.847179
0.395000 0.395042 1167.555651 26.048501 -681.906718 -43.779301 576.197021 1235836 3535.847179
0.405000 0.405044 1163.551018 36.594808 -733.811924 11.740332 450.075796 1298532 3535.847179
0.415000 0.415047 1091.722256 40.830266 -577.043107 -37.162490 578.536937 1364380 3535.847179
0.425000 0.425042 1029.895158 30.540431 -531.562010 9.619819 605.237198 1427560 3535.847179
0.435000 0.435034 988.384044 34.713710 -584.774184 -16.902035 466.421207 1498188 3535.847179
0.445000 0.445039 925.488519 35.460783 -630.332621 3.648223 562.352289 1569052 3535.847179
