#Data file /home/DATA/sbrieden/BOSS_data_v5/cmass/blinded/galaxy_DR12v5_CMASS_South_t2_blindedRSDBAO_w0OmegamDown10_GammaOut0825Smooth10_f0784b2000s10.dat
#Random file /home/DATA/sbrieden/BOSS_data_v5/cmass/blinded/galaxy_DR12v5_CMASS_South_t2_blindedRSDBAO_w0OmegamDown10_GammaOut0825Smooth10_f0784b2000s10.ran
#Number of data elements used: 199766
#Number of random elements used: 10072618
#Effective number of data elements weighted by wcol: 213860.800658
#Effective number of random elements weighted by wcol: 10072618.000000
#Effective number of data elements weighted by wcol*wsys: 216357.918965
#Effective number of random elements weighted by wcol*wsys: 10072618.000000
#Effective redshift value from data 0.621682
#Effective redshift value from randoms 0.618543
#Size of the Box 3500.000000 Mpc/h
#Area of the survey used 6851.413821 deg^2
#Value of alpha: 0.021568
#Normalization using data file
#Normalization using density
#Normalization 4.103712
#Shot noise factor 1.000000
#Shot noise value 5904.240756
#Type of Computation: FFT
#Number of grid cells: 512
#Type of Mass Assigment: TSC
#Type of Yamamoto: GridCenter
#Number of Interlacing steps: 2
#Grid Correction: yes
#Value of Om=0.310000
#Quadrupole as L2
#Octopole as L3
#Hexadecapole as L4
#k-centerbin	 k-eff	 Monopole-Pshotnoise	 Dipole	 Quadrupole	 Octopole	 Hexadecapole	 number of modes	 Pshotnoise
0.005000 0.007554 44319.339370 -7337.885568 7438.255250 -517.132635 -11735.374383 738 5904.240756
0.015000 0.016052 53861.118877 1929.134128 9389.891607 2716.642639 -6505.895342 5004 5904.240756
0.025000 0.025637 42320.697427 -293.949154 -11988.843593 -1669.150121 -7507.850543 13806 5904.240756
0.035000 0.035467 31644.655693 1100.155573 -5238.106097 -935.363041 -8459.486367 26748 5904.240756
0.045000 0.045358 24947.591923 131.044151 -4140.101853 274.310765 5397.564409 44150 5904.240756
0.055000 0.055296 22030.917423 349.621000 -4272.414839 -387.174655 2823.735702 65916 5904.240756
0.065000 0.065239 19041.291064 141.897638 -2130.804026 63.247273 4.154084 91686 5904.240756
0.075000 0.075193 15387.436248 211.485358 -2269.148644 -64.925878 -1057.158044 122244 5904.240756
0.085000 0.085177 12499.760191 175.781967 -3341.442428 45.085259 281.569134 157332 5904.240756
0.095000 0.095177 11011.086826 167.759832 -3277.514076 -276.674610 1039.848056 196670 5904.240756
0.105000 0.105162 9383.567705 103.394441 -1941.013787 53.735131 77.037178 239244 5904.240756
0.115000 0.115140 8188.434166 52.764089 -2394.234309 -43.276961 135.360200 287454 5904.240756
0.125000 0.125132 7643.545260 111.181953 -1110.245468 -87.035762 318.930954 339708 5904.240756
0.135000 0.135114 6945.357737 61.854755 -1180.208286 -49.566495 409.741968 395246 5904.240756
0.145000 0.145105 5973.452926 70.016462 -1370.469093 11.508779 -525.567269 457548 5904.240756
0.155000 0.155105 5190.277296 90.748282 -925.940826 -2.178575 536.546791 521964 5904.240756
0.165000 0.165097 4691.155936 52.171002 -990.663108 -61.446984 368.234176 591354 5904.240756
0.175000 0.175096 4588.583463 53.197459 -716.878994 -24.329442 604.988456 666180 5904.240756
0.185000 0.185091 4147.552880 36.103136 -551.428083 18.820955 17.253681 742742 5904.240756
0.195000 0.195086 3831.031947 62.354444 -548.995864 -10.005549 291.329785 826812 5904.240756
0.205000 0.205081 3403.132052 58.606872 -543.569666 -17.301183 373.829256 912174 5904.240756
0.215000 0.215077 3069.178008 38.375995 -453.359598 5.311330 -16.518448 1005132 5904.240756
0.225000 0.225075 2801.000653 62.615335 -491.049840 -17.274573 112.569027 1099092 5904.240756
0.235000 0.235067 2505.790333 38.980488 -399.686342 -10.868936 396.614115 1199342 5904.240756
0.245000 0.245058 2441.934739 34.902480 -623.194893 18.222112 326.583518 1302660 5904.240756
0.255000 0.255056 2293.707974 47.943885 -353.075777 -33.139250 238.237043 1413798 5904.240756
0.265000 0.265059 2218.748594 34.773531 -579.583889 39.217470 320.289646 1525836 5904.240756
0.275000 0.275059 1950.974103 57.732940 -525.148968 -40.744789 436.197895 1643150 5904.240756
0.285000 0.285059 1754.544785 40.721639 -482.592873 25.114396 407.305397 1764732 5904.240756
0.295000 0.295061 1659.328588 44.724788 -476.043983 -16.110804 490.941041 1891668 5904.240756
0.305000 0.305059 1533.904001 42.731285 -342.998138 -6.640396 395.273812 2019726 5904.240756
0.315000 0.315054 1481.033843 32.106374 -599.231587 21.788366 335.705526 2155020 5904.240756
0.325000 0.325048 1354.295431 52.126556 -468.547535 -20.208800 286.104723 2293034 5904.240756
0.335000 0.335048 1279.724417 39.929822 -668.791521 -4.886230 295.135639 2439828 5904.240756
0.345000 0.345052 1192.476871 47.304359 -543.716755 -2.071370 439.105970 2585862 5904.240756
0.355000 0.355052 1118.595917 46.773655 -460.186421 -21.342496 518.075487 2737956 5904.240756
0.365000 0.365046 1079.719695 52.539305 -407.725102 -16.005091 332.166786 2891004 5904.240756
0.375000 0.375041 979.284481 38.453215 -449.236731 10.420297 422.984252 3055430 5904.240756
0.385000 0.385044 950.872602 45.427998 -509.885723 -5.003587 415.063537 3221436 5904.240756
0.395000 0.395041 930.138440 49.699387 -503.450231 -6.459090 446.547440 3386286 5904.240756
0.405000 0.405037 850.279995 45.523042 -543.248942 1.145088 444.033330 3563388 5904.240756
0.415000 0.415036 814.150823 51.820250 -481.399316 -28.509684 430.154692 3740486 5904.240756
0.425000 0.425038 768.277671 48.829100 -435.636975 6.881677 360.954235 3926484 5904.240756
0.435000 0.435038 787.661255 45.408945 -493.429287 3.212305 404.863170 4107420 5904.240756
0.445000 0.445035 731.001936 54.860615 -512.116306 -16.386257 439.943847 4303062 5904.240756
