#Data file /home/DATA/sbrieden/BOSS_data_v5/lowz/blinded/galaxy_DR12v5_LOWZ_South_t2_blindedRSDBAO_w0OmegamDown10_GammaOut0825Smooth10_f0577b1850s10.dat
#Random file /home/DATA/sbrieden/BOSS_data_v5/lowz/blinded/galaxy_DR12v5_LOWZ_South_t2_blindedRSDBAO_w0OmegamDown10_GammaOut0825Smooth10_f0577b1850s10.ran
#Number of data elements used: 104662
#Number of random elements used: 5110529
#Effective number of data elements weighted by wcol: 108597.000000
#Effective number of random elements weighted by wcol: 5110529.000000
#Effective number of data elements weighted by wcol*wsys: 108597.000000
#Effective number of random elements weighted by wcol*wsys: 5110529.000000
#Effective redshift value from data 0.338598
#Effective redshift value from randoms 0.338489
#Size of the Box 2500.000000 Mpc/h
#Area of the survey used 2501.000000 deg^2
#Value of alpha: 0.021244
#Normalization using data file
#Normalization using density
#Normalization 1.920073
#Shot noise factor 1.000000
#Shot noise value 3517.880508
#Type of Computation: FFT
#Number of grid cells: 512
#Type of Mass Assigment: TSC
#Type of Yamamoto: GridCenter
#Number of Interlacing steps: 2
#Grid Correction: yes
#Value of Om=0.310000
#Quadrupole as L2
#Octopole as L3
#Hexadecapole as L4
#k-centerbin	 k-eff	 Monopole-Pshotnoise	 Dipole	 Quadrupole	 Octopole	 Hexadecapole	 number of modes	 Pshotnoise
0.005000 0.007385 83626.616013 -1173.497363 -67571.153886 -37369.261449 10375.123201 250 3517.880508
0.015000 0.016012 61794.257096 136.906528 -17133.704085 991.976321 14764.315806 1852 3517.880508
0.025000 0.025646 48930.006580 837.659492 -1135.970179 -6510.713685 -2783.151303 5020 3517.880508
0.035000 0.035469 35201.904028 1272.326342 -4718.181050 2104.111816 -5462.049483 9756 3517.880508
0.045000 0.045368 29239.627744 462.300221 -12748.482172 -1251.041204 1088.261965 16108 3517.880508
0.055000 0.055314 25080.838086 275.905230 -9383.663888 -903.189844 1069.378040 24064 3517.880508
0.065000 0.065258 21758.330266 705.574748 -852.113081 -998.786410 1849.829595 33396 3517.880508
0.075000 0.075209 17707.763114 356.154051 -703.568675 888.753995 -132.487295 44596 3517.880508
0.085000 0.085175 13796.194164 217.838197 -2983.289577 -387.078818 68.006660 57124 3517.880508
0.095000 0.095157 12233.063998 306.851552 -2156.884009 -62.277129 1803.828876 71620 3517.880508
0.105000 0.105162 10190.173701 243.637965 -2054.698238 -330.112079 -166.838908 87552 3517.880508
0.115000 0.115148 9475.870704 37.063679 -420.170459 233.746681 2271.626603 104524 3517.880508
0.125000 0.125146 8708.085983 165.933476 -1400.984803 -111.757078 729.962507 124228 3517.880508
0.135000 0.135146 7722.021354 133.696997 -502.871780 -20.302683 1093.839077 144204 3517.880508
0.145000 0.145132 6761.865235 91.554626 -1030.274989 28.690788 398.332755 166492 3517.880508
0.155000 0.155114 6252.781791 95.821656 -493.644237 1.842368 608.887744 189964 3517.880508
0.165000 0.165102 5377.603979 103.449839 -797.313655 -97.873885 -6.002394 215640 3517.880508
0.175000 0.175105 5092.098405 24.132143 -552.840600 51.621768 423.666193 242836 3517.880508
0.185000 0.185097 4971.189312 53.432865 -600.656878 58.578307 601.870981 270556 3517.880508
0.195000 0.195085 4145.898111 144.463564 -562.523011 -106.131668 602.153168 301084 3517.880508
0.205000 0.205080 3793.950098 33.278142 -640.963884 38.258499 352.906026 332628 3517.880508
0.215000 0.215092 3409.209636 45.832107 -498.287681 1.879519 328.002545 367216 3517.880508
0.225000 0.225099 3141.744728 65.589181 -570.765022 25.664422 329.512370 400444 3517.880508
0.235000 0.235081 2834.096553 35.269954 -888.816907 -3.660515 534.547863 436500 3517.880508
0.245000 0.245077 2753.361966 47.405300 -821.654230 -37.891241 312.160565 475900 3517.880508
0.255000 0.255082 2532.387816 45.364520 -694.361867 33.106949 607.607377 514900 3517.880508
0.265000 0.265074 2283.520814 50.815647 -617.801254 -28.143002 645.168935 555408 3517.880508
0.275000 0.275066 2141.843411 23.524640 -728.063380 -10.434089 483.321069 598684 3517.880508
0.285000 0.285066 2013.618194 25.007970 -877.343998 16.048718 267.473458 643228 3517.880508
0.295000 0.295058 1957.386877 41.458297 -791.949237 -41.844480 486.094710 688036 3517.880508
0.305000 0.305062 1748.860879 37.958088 -674.599362 4.699754 518.084713 738228 3517.880508
0.315000 0.315069 1703.085435 24.217064 -657.773708 6.012082 474.534458 785044 3517.880508
0.325000 0.325061 1567.032437 43.999874 -742.827942 12.752232 522.959448 835840 3517.880508
0.335000 0.335058 1465.685065 31.923891 -852.509841 -9.769171 477.049946 888468 3517.880508
0.345000 0.345042 1425.440870 28.816390 -809.345192 -23.584152 439.187379 939556 3517.880508
0.355000 0.355041 1325.994821 34.731472 -675.079904 -6.549304 459.648364 1000444 3517.880508
0.365000 0.365047 1251.972021 36.696273 -672.146051 3.461270 551.840454 1053124 3517.880508
0.375000 0.375041 1204.497626 26.250536 -826.823385 19.720739 618.496232 1113696 3517.880508
0.385000 0.385041 1126.291975 26.926339 -708.300846 -54.810073 523.519520 1173172 3517.880508
0.395000 0.395042 1152.134841 36.905215 -722.362093 1.002417 518.644915 1235836 3517.880508
0.405000 0.405044 1076.970730 30.367629 -607.548046 -2.749116 645.968028 1298532 3517.880508
0.415000 0.415047 964.955624 34.015601 -604.697270 -21.105813 560.485916 1364380 3517.880508
0.425000 0.425042 945.680663 31.851452 -607.203506 -1.166723 438.740836 1427560 3517.880508
0.435000 0.435034 889.737678 32.115442 -683.331020 -5.198789 500.838258 1498188 3517.880508
0.445000 0.445039 840.494950 34.459180 -561.384365 -20.343939 375.974238 1569052 3517.880508
