#Data file /home/DATA/sbrieden/BOSS_data_v5/lowz/blinded/galaxy_DR12v5_LOWZ_South_t2_blindedRSDBAO_w0OmegamDown10_GammaOut0825Smooth10_f0693b1850s10.dat
#Random file /home/DATA/sbrieden/BOSS_data_v5/lowz/blinded/galaxy_DR12v5_LOWZ_South_t2_blindedRSDBAO_w0OmegamDown10_GammaOut0825Smooth10_f0693b1850s10.ran
#Number of data elements used: 104718
#Number of random elements used: 5112357
#Effective number of data elements weighted by wcol: 108656.000000
#Effective number of random elements weighted by wcol: 5112357.000000
#Effective number of data elements weighted by wcol*wsys: 108656.000000
#Effective number of random elements weighted by wcol*wsys: 5112357.000000
#Effective redshift value from data 0.338638
#Effective redshift value from randoms 0.338511
#Size of the Box 2500.000000 Mpc/h
#Area of the survey used 2501.000000 deg^2
#Value of alpha: 0.021252
#Normalization using data file
#Normalization using density
#Normalization 1.921516
#Shot noise factor 1.000000
#Shot noise value 3520.674747
#Type of Computation: FFT
#Number of grid cells: 512
#Type of Mass Assigment: TSC
#Type of Yamamoto: GridCenter
#Number of Interlacing steps: 2
#Grid Correction: yes
#Value of Om=0.310000
#Quadrupole as L2
#Octopole as L3
#Hexadecapole as L4
#k-centerbin	 k-eff	 Monopole-Pshotnoise	 Dipole	 Quadrupole	 Octopole	 Hexadecapole	 number of modes	 Pshotnoise
0.005000 0.007385 82898.403135 -1128.565080 -67894.410962 -36559.075291 10435.531657 250 3520.674747
0.015000 0.016012 60141.764877 55.849345 -20352.056473 442.868377 15339.686809 1852 3520.674747
0.025000 0.025646 47329.165884 757.607871 -4043.696443 -6714.624224 -2899.865960 5020 3520.674747
0.035000 0.035469 34067.866584 1181.157256 -6604.790837 1805.737129 -5038.281217 9756 3520.674747
0.045000 0.045368 28505.552176 433.728655 -14159.421027 -1299.877805 1398.273926 16108 3520.674747
0.055000 0.055314 24386.553014 251.881647 -10602.016667 -962.145513 1475.054348 24064 3520.674747
0.065000 0.065258 21073.644324 683.151580 -2289.892071 -1043.251908 1936.138148 33396 3520.674747
0.075000 0.075209 17177.998657 333.159414 -1808.894140 769.379556 -10.524096 44596 3520.674747
0.085000 0.085175 13416.260008 203.852363 -3734.857337 -426.278902 169.646139 57124 3520.674747
0.095000 0.095157 11931.001571 299.809201 -2878.700987 -102.783744 1832.758490 71620 3520.674747
0.105000 0.105162 9925.850840 237.272493 -2604.273379 -349.995063 -102.329459 87552 3520.674747
0.115000 0.115148 9246.730447 30.097084 -1015.984809 197.683632 2209.305051 104524 3520.674747
0.125000 0.125146 8525.024178 160.785907 -1798.787962 -128.251476 779.382930 124228 3520.674747
0.135000 0.135146 7561.228013 130.178452 -876.200693 -35.355119 1178.264428 144204 3520.674747
0.145000 0.145132 6635.263399 86.436999 -1318.282931 21.230112 450.583995 166492 3520.674747
0.155000 0.155114 6129.109578 95.333042 -772.968100 -12.377670 649.039902 189964 3520.674747
0.165000 0.165102 5286.296255 101.667040 -1024.508388 -110.032811 -16.292242 215640 3520.674747
0.175000 0.175105 5003.155355 21.447807 -745.985808 44.679287 441.883099 242836 3520.674747
0.185000 0.185097 4909.043231 49.792705 -802.454900 54.895786 614.425924 270556 3520.674747
0.195000 0.195085 4099.026111 144.914306 -689.444603 -114.545769 636.030587 301084 3520.674747
0.205000 0.205080 3756.212721 35.158598 -728.382556 32.247147 367.056873 332628 3520.674747
0.215000 0.215092 3361.466258 43.511760 -589.399042 -3.716077 311.327623 367216 3520.674747
0.225000 0.225099 3114.857867 63.509767 -648.784249 25.914321 331.508858 400444 3520.674747
0.235000 0.235081 2809.723788 36.193677 -935.461957 -5.368346 558.724269 436500 3520.674747
0.245000 0.245077 2727.506725 46.914182 -882.370668 -43.271277 338.595523 475900 3520.674747
0.255000 0.255082 2505.943865 45.818588 -731.561893 35.786506 626.413776 514900 3520.674747
0.265000 0.265074 2262.016551 49.910278 -652.749124 -29.251739 672.705529 555408 3520.674747
0.275000 0.275066 2111.419524 23.201727 -767.263164 -12.905227 471.426618 598684 3520.674747
0.285000 0.285066 1992.924020 25.602704 -908.411766 17.043507 293.323507 643228 3520.674747
0.295000 0.295058 1927.257771 41.715338 -820.089450 -42.607340 501.013925 688036 3520.674747
0.305000 0.305062 1725.685710 37.782656 -711.036200 5.087382 520.490668 738228 3520.674747
0.315000 0.315069 1685.430265 23.419193 -677.562058 0.160244 484.378944 785044 3520.674747
0.325000 0.325061 1544.855423 44.082398 -756.833461 17.250070 529.026597 835840 3520.674747
0.335000 0.335058 1449.879605 31.680270 -875.912418 -10.970634 502.144378 888468 3520.674747
0.345000 0.345042 1404.713804 27.245959 -839.495924 -23.677376 422.107949 939556 3520.674747
0.355000 0.355041 1309.507835 36.047504 -683.354321 -9.293752 460.519877 1000444 3520.674747
0.365000 0.365047 1236.433032 35.784071 -687.364544 5.195663 552.361210 1053124 3520.674747
0.375000 0.375041 1193.647123 26.065654 -855.819000 19.280426 638.401826 1113696 3520.674747
0.385000 0.385041 1109.788888 26.926109 -719.951832 -55.866162 527.775693 1173172 3520.674747
0.395000 0.395042 1140.608113 36.275293 -732.421259 -0.781328 524.127248 1235836 3520.674747
0.405000 0.405044 1063.805694 30.892624 -622.916882 -0.926219 646.768369 1298532 3520.674747
0.415000 0.415047 956.015108 33.614952 -624.260436 -22.753033 580.309699 1364380 3520.674747
0.425000 0.425042 934.527596 32.088699 -617.796653 -1.383373 444.985722 1427560 3520.674747
0.435000 0.435034 879.453317 31.970798 -684.334582 -3.063661 513.747750 1498188 3520.674747
0.445000 0.445039 833.045271 35.374562 -557.664700 -21.696476 395.883818 1569052 3520.674747
