#Data file /home/DATA/sbrieden/BOSS_data_v5/cmass/blinded/galaxy_DR12v5_CMASS_North_t2_blindedRSDBAO_w0OmegamDown10_GammaOut0825Smooth10_f0695b2000s10.dat
#Random file /home/DATA/sbrieden/BOSS_data_v5/cmass/blinded/galaxy_DR12v5_CMASS_North_t2_blindedRSDBAO_w0OmegamDown10_GammaOut0825Smooth10_f0695b2000s10.ran
#Number of data elements used: 544197
#Number of random elements used: 28341211
#Effective number of data elements weighted by wcol: 583941.923470
#Effective number of random elements weighted by wcol: 28341211.000000
#Effective number of data elements weighted by wcol*wsys: 580561.638055
#Effective number of random elements weighted by wcol*wsys: 28341211.000000
#Effective redshift value from data 0.620119
#Effective redshift value from randoms 0.619505
#Size of the Box 3500.000000 Mpc/h
#Area of the survey used 6851.413821 deg^2
#Value of alpha: 0.020503
#Normalization using data file
#Normalization using density
#Normalization 10.887795
#Shot noise factor 1.000000
#Shot noise value 5598.739617
#Type of Computation: FFT
#Number of grid cells: 512
#Type of Mass Assigment: TSC
#Type of Yamamoto: GridCenter
#Number of Interlacing steps: 2
#Grid Correction: yes
#Value of Om=0.310000
#Quadrupole as L2
#Octopole as L3
#Hexadecapole as L4
#k-centerbin	 k-eff	 Monopole-Pshotnoise	 Dipole	 Quadrupole	 Octopole	 Hexadecapole	 number of modes	 Pshotnoise
0.005000 0.007554 71006.822158 4823.189106 -16106.677922 -11860.407008 4008.535123 738 5598.739617
0.015000 0.016052 48652.150827 -260.435106 -10441.913974 -2250.604402 -4327.521491 5004 5598.739617
0.025000 0.025637 38576.154054 731.714597 706.379736 1140.427782 5395.979813 13806 5598.739617
0.035000 0.035467 32197.652437 499.126183 -4596.101205 -699.557787 -2997.554785 26748 5598.739617
0.045000 0.045358 24820.250878 300.280639 -2634.614494 155.765632 1119.752821 44150 5598.739617
0.055000 0.055296 22268.744306 215.588051 -4229.261566 -273.086738 1508.060182 65916 5598.739617
0.065000 0.065239 19739.634346 133.281259 -3184.767571 -297.486413 79.703494 91686 5598.739617
0.075000 0.075193 16347.077786 278.440012 -2166.731340 146.173458 -933.799697 122244 5598.739617
0.085000 0.085177 13180.321938 239.655747 -2218.874709 -193.673780 1383.742978 157332 5598.739617
0.095000 0.095177 11105.081365 114.928716 -1675.453267 54.949680 -18.919051 196670 5598.739617
0.105000 0.105162 9496.659026 106.037496 -1397.173971 -79.697400 -5.967771 239244 5598.739617
0.115000 0.115140 9015.671639 39.197696 -1106.914555 -48.356230 107.582111 287454 5598.739617
0.125000 0.125132 8161.297574 95.065506 -1042.343008 12.507578 -204.633348 339708 5598.739617
0.135000 0.135114 7112.135426 78.465421 -1004.098716 51.972321 -120.788128 395246 5598.739617
0.145000 0.145105 6307.515127 87.423048 -1293.936469 -58.276650 199.909934 457548 5598.739617
0.155000 0.155105 5456.186707 84.138749 -553.873667 -33.665952 407.411498 521964 5598.739617
0.165000 0.165097 4967.783961 53.497472 -236.021502 -49.705222 501.532830 591354 5598.739617
0.175000 0.175096 4683.944085 49.314887 -238.411078 2.413871 268.670167 666180 5598.739617
0.185000 0.185091 4355.236099 54.620961 -505.268973 36.009997 186.822140 742742 5598.739617
0.195000 0.195086 3948.663615 54.484742 -578.555171 11.651886 485.144416 826812 5598.739617
0.205000 0.205081 3483.892127 55.214008 -399.503733 -33.708401 421.238772 912174 5598.739617
0.215000 0.215077 3205.457720 48.569863 -363.040481 -9.032508 68.409487 1005132 5598.739617
0.225000 0.225075 2869.374695 55.967267 -414.315818 6.237574 128.891515 1099092 5598.739617
0.235000 0.235067 2715.859900 31.807540 -446.153793 16.974397 420.016801 1199342 5598.739617
0.245000 0.245058 2512.435772 46.267431 -455.571898 -28.614591 230.341709 1302660 5598.739617
0.255000 0.255056 2298.617418 40.576946 -471.430797 18.156461 264.151713 1413798 5598.739617
0.265000 0.265059 2099.642925 49.036353 -441.088801 -22.448642 289.036043 1525836 5598.739617
0.275000 0.275059 1983.104412 40.135295 -574.482767 16.604692 398.222132 1643150 5598.739617
0.285000 0.285059 1796.230848 46.394080 -518.367478 -15.567004 202.804366 1764732 5598.739617
0.295000 0.295061 1701.002259 38.680901 -516.529994 1.850777 335.317392 1891668 5598.739617
0.305000 0.305059 1595.231336 37.583921 -536.406098 7.799123 419.393372 2019726 5598.739617
0.315000 0.315054 1496.553973 42.638657 -503.678297 -4.507387 460.313433 2155020 5598.739617
0.325000 0.325048 1456.425931 36.205164 -509.699576 -8.242400 363.224100 2293034 5598.739617
0.335000 0.335048 1417.165656 49.191429 -520.953824 -11.162091 363.987912 2439828 5598.739617
0.345000 0.345052 1295.033237 41.696648 -525.005997 -4.072676 365.079915 2585862 5598.739617
0.355000 0.355052 1191.349513 45.966346 -489.178553 -13.168269 249.557388 2737956 5598.739617
0.365000 0.365046 1149.391585 43.125919 -461.587371 6.623209 376.333584 2891004 5598.739617
0.375000 0.375041 1052.623671 48.331627 -511.390202 -5.116820 369.003331 3055430 5598.739617
0.385000 0.385044 986.343263 45.046234 -519.783065 -11.213101 409.901834 3221436 5598.739617
0.395000 0.395041 978.146496 40.188905 -444.155662 2.456671 403.356103 3386286 5598.739617
0.405000 0.405037 912.653831 51.318606 -511.656738 -7.101550 354.946208 3563388 5598.739617
0.415000 0.415036 864.762030 46.677923 -531.495376 0.713371 369.792604 3740486 5598.739617
0.425000 0.425038 805.443766 52.006747 -450.641349 -22.052482 373.279221 3926484 5598.739617
0.435000 0.435038 775.994127 45.002636 -364.010822 0.322239 358.419621 4107420 5598.739617
0.445000 0.445035 773.260214 48.366490 -467.631507 -1.365699 379.914518 4303062 5598.739617
