#Data file /home/DATA/sbrieden/BOSS_data_v5/lowz/blinded/galaxy_DR12v5_LOWZ_North_t2_blindedRSDBAO_w0OmegamDown10_GammaOut0825Smooth10_f0693b1850s10.dat
#Random file /home/DATA/sbrieden/BOSS_data_v5/lowz/blinded/galaxy_DR12v5_LOWZ_North_t2_blindedRSDBAO_w0OmegamDown10_GammaOut0825Smooth10_f0693b1850s10.ran
#Number of data elements used: 229864
#Number of random elements used: 11314988
#Effective number of data elements weighted by wcol: 234393.000000
#Effective number of random elements weighted by wcol: 11314988.000000
#Effective number of data elements weighted by wcol*wsys: 234393.000000
#Effective number of random elements weighted by wcol*wsys: 11314988.000000
#Effective redshift value from data 0.338339
#Effective redshift value from randoms 0.337458
#Size of the Box 2500.000000 Mpc/h
#Area of the survey used 5826.000000 deg^2
#Value of alpha: 0.020773
#Normalization using data file
#Normalization using density
#Normalization 4.347045
#Shot noise factor 1.000000
#Shot noise value 3716.162057
#Type of Computation: FFT
#Number of grid cells: 512
#Type of Mass Assigment: TSC
#Type of Yamamoto: GridCenter
#Number of Interlacing steps: 2
#Grid Correction: yes
#Value of Om=0.310000
#Quadrupole as L2
#Octopole as L3
#Hexadecapole as L4
#k-centerbin	 k-eff	 Monopole-Pshotnoise	 Dipole	 Quadrupole	 Octopole	 Hexadecapole	 number of modes	 Pshotnoise
0.005000 0.007385 40835.302823 -12574.209518 -26545.241280 4836.994193 14313.771603 250 3716.162057
0.015000 0.016012 63401.503089 437.956303 -11545.631596 -2581.191717 7332.032844 1852 3716.162057
0.025000 0.025646 47452.057027 2280.165589 -13581.750643 -3910.826195 -9250.954758 5020 3716.162057
0.035000 0.035469 34367.582507 912.222271 -7057.076428 -2084.724202 -1624.779467 9756 3716.162057
0.045000 0.045368 29661.917789 210.538952 -373.899742 -325.791839 -1220.656750 16108 3716.162057
0.055000 0.055314 24535.767944 852.163208 -868.506251 586.068676 188.793684 24064 3716.162057
0.065000 0.065258 20135.727813 166.178978 -2636.344664 -665.003200 18.489577 33396 3716.162057
0.075000 0.075209 17785.355435 458.339132 -1963.189945 -18.170899 -1504.729770 44596 3716.162057
0.085000 0.085175 15488.875519 309.366610 -2101.675806 -93.022504 -1033.503236 57124 3716.162057
0.095000 0.095157 12228.844638 214.939117 -1173.880040 117.117912 392.068192 71620 3716.162057
0.105000 0.105162 10600.754670 228.138795 -1601.851382 -123.172777 1703.049664 87552 3716.162057
0.115000 0.115148 9417.173424 120.746839 -848.885377 -52.464256 -214.780778 104524 3716.162057
0.125000 0.125146 9077.728460 63.904686 -1693.797300 3.101172 -338.475490 124228 3716.162057
0.135000 0.135146 7950.523099 175.166672 -399.391029 -129.103531 654.499007 144204 3716.162057
0.145000 0.145132 7222.784151 116.157721 -1007.535345 -1.379699 158.711077 166492 3716.162057
0.155000 0.155114 6261.143851 113.096146 -1023.915491 85.641904 229.157860 189964 3716.162057
0.165000 0.165102 5553.133673 71.404385 -627.259497 -36.522771 520.433804 215640 3716.162057
0.175000 0.175105 5215.463981 47.867612 -768.022271 -72.652501 337.239653 242836 3716.162057
0.185000 0.185097 4802.640947 88.878707 -607.393237 31.140221 421.323663 270556 3716.162057
0.195000 0.195085 4442.435689 39.839184 -840.801202 73.969410 703.336802 301084 3716.162057
0.205000 0.205080 4055.359103 91.208775 -710.652768 -94.441054 661.212123 332628 3716.162057
0.215000 0.215092 3628.460667 75.340856 -657.475949 -0.338827 538.474061 367216 3716.162057
0.225000 0.225099 3272.356355 21.724070 -661.542289 54.408701 424.120081 400444 3716.162057
0.235000 0.235081 3028.593783 57.135232 -871.137668 -19.466461 575.853722 436500 3716.162057
0.245000 0.245077 2896.146489 20.422214 -840.639154 23.582680 739.147283 475900 3716.162057
0.255000 0.255082 2709.122432 73.553058 -750.640026 -51.308832 558.676055 514900 3716.162057
0.265000 0.265074 2482.631779 34.605580 -650.147440 1.339122 513.033962 555408 3716.162057
0.275000 0.275066 2269.409985 44.040300 -757.057972 13.218215 569.417037 598684 3716.162057
0.285000 0.285066 2102.371081 37.376600 -684.323938 -7.859946 633.352014 643228 3716.162057
0.295000 0.295058 2048.323535 25.372216 -706.764341 9.896436 585.997607 688036 3716.162057
0.305000 0.305062 1899.061767 56.039561 -758.353224 -52.054249 545.941866 738228 3716.162057
0.315000 0.315069 1822.051273 25.624276 -696.465072 28.627091 552.930884 785044 3716.162057
0.325000 0.325061 1706.383116 39.803134 -728.155508 -24.511844 494.230561 835840 3716.162057
0.335000 0.335058 1595.263471 36.524551 -685.413364 3.651090 507.201339 888468 3716.162057
0.345000 0.345042 1505.988176 28.415845 -840.638924 -10.101554 688.067209 939556 3716.162057
0.355000 0.355041 1412.839023 33.191895 -706.463513 11.282631 580.158113 1000444 3716.162057
0.365000 0.365047 1366.746171 37.993771 -720.825174 -13.698907 678.128808 1053124 3716.162057
0.375000 0.375041 1264.710667 28.817459 -779.814967 -13.141657 532.655308 1113696 3716.162057
0.385000 0.385041 1258.898051 27.352287 -701.239862 -7.084139 574.145596 1173172 3716.162057
0.395000 0.395042 1197.205672 36.609569 -724.339096 -8.952035 532.612769 1235836 3716.162057
0.405000 0.405044 1115.726769 43.864577 -680.490988 -14.225716 527.788808 1298532 3716.162057
0.415000 0.415047 1055.938536 26.561753 -728.389406 -4.130026 524.139181 1364380 3716.162057
0.425000 0.425042 1029.894285 39.869703 -695.490247 -14.217846 508.631657 1427560 3716.162057
0.435000 0.435034 951.797183 30.143518 -620.641326 -1.437864 523.865712 1498188 3716.162057
0.445000 0.445039 936.525771 32.468206 -571.804401 -19.226225 546.185673 1569052 3716.162057
