#Data file /home/DATA/sbrieden/BOSS_data_v5/cmass/blinded/galaxy_DR12v5_CMASS_North_t2_blindedRSDBAO_w0OmegamDown10_GammaOut0825Smooth10_f0784b2000s10.dat
#Random file /home/DATA/sbrieden/BOSS_data_v5/cmass/blinded/galaxy_DR12v5_CMASS_North_t2_blindedRSDBAO_w0OmegamDown10_GammaOut0825Smooth10_f0784b2000s10.ran
#Number of data elements used: 543523
#Number of random elements used: 28328133
#Effective number of data elements weighted by wcol: 583249.769388
#Effective number of random elements weighted by wcol: 28328133.000000
#Effective number of data elements weighted by wcol*wsys: 579874.950643
#Effective number of random elements weighted by wcol*wsys: 28328133.000000
#Effective redshift value from data 0.620103
#Effective redshift value from randoms 0.619454
#Size of the Box 3500.000000 Mpc/h
#Area of the survey used 6851.413821 deg^2
#Value of alpha: 0.020498
#Normalization using data file
#Normalization using density
#Normalization 10.873915
#Shot noise factor 1.000000
#Shot noise value 5614.335424
#Type of Computation: FFT
#Number of grid cells: 512
#Type of Mass Assigment: TSC
#Type of Yamamoto: GridCenter
#Number of Interlacing steps: 2
#Grid Correction: yes
#Value of Om=0.310000
#Quadrupole as L2
#Octopole as L3
#Hexadecapole as L4
#k-centerbin	 k-eff	 Monopole-Pshotnoise	 Dipole	 Quadrupole	 Octopole	 Hexadecapole	 number of modes	 Pshotnoise
0.005000 0.007554 68855.142448 4486.873572 -16174.134840 -10867.797350 4316.255088 738 5614.335424
0.015000 0.016052 47566.772588 -288.916264 -12010.382997 -2309.037678 -3473.219508 5004 5614.335424
0.025000 0.025637 37516.225890 700.381458 -843.620160 970.904465 5228.100747 13806 5614.335424
0.035000 0.035467 31375.530847 465.009432 -6009.724849 -745.846490 -2723.457888 26748 5614.335424
0.045000 0.045358 24185.279947 278.170047 -3797.373324 115.794693 1135.260529 44150 5614.335424
0.055000 0.055296 21707.007030 204.611055 -5338.994481 -314.896152 1621.904977 65916 5614.335424
0.065000 0.065239 19259.449194 122.623057 -4065.171087 -316.187076 279.589042 91686 5614.335424
0.075000 0.075193 15976.324699 271.239198 -2950.703017 112.695532 -797.618916 122244 5614.335424
0.085000 0.085177 12891.157618 232.520534 -2819.916503 -207.864549 1532.116332 157332 5614.335424
0.095000 0.095177 10872.016429 111.383314 -2196.890519 33.548945 65.858532 196670 5614.335424
0.105000 0.105162 9304.014773 104.216624 -1824.549887 -98.828319 111.852304 239244 5614.335424
0.115000 0.115140 8829.213159 35.392620 -1490.122211 -44.763974 165.982256 287454 5614.335424
0.125000 0.125132 8010.130445 94.918071 -1392.272117 -4.705001 -131.302812 339708 5614.335424
0.135000 0.135114 6997.068371 74.429437 -1295.801498 44.914353 -92.904771 395246 5614.335424
0.145000 0.145105 6212.241016 85.505974 -1534.633240 -60.491389 189.048121 457548 5614.335424
0.155000 0.155105 5390.184145 83.589916 -730.698947 -49.883598 425.233299 521964 5614.335424
0.165000 0.165097 4911.178764 53.163894 -366.000251 -53.236910 520.308829 591354 5614.335424
0.175000 0.175096 4638.721170 46.610976 -371.287484 5.167174 228.814616 666180 5614.335424
0.185000 0.185091 4329.322429 54.554469 -558.606084 32.057403 177.261441 742742 5614.335424
0.195000 0.195086 3930.127195 56.325043 -676.474309 4.462322 456.925847 826812 5614.335424
0.205000 0.205081 3466.500967 52.957036 -461.934937 -30.378626 413.452066 912174 5614.335424
0.215000 0.215077 3194.868631 50.726901 -417.060008 -13.570656 66.485754 1005132 5614.335424
0.225000 0.225075 2863.224522 55.119113 -445.377501 4.467891 120.095496 1099092 5614.335424
0.235000 0.235067 2709.008345 30.830520 -475.878138 19.585109 411.519404 1199342 5614.335424
0.245000 0.245058 2508.533021 48.162390 -487.795944 -32.459463 241.397245 1302660 5614.335424
0.255000 0.255056 2301.222097 37.252245 -472.239411 18.922123 262.933121 1413798 5614.335424
0.265000 0.265059 2102.204869 52.046540 -478.174184 -22.403025 270.332914 1525836 5614.335424
0.275000 0.275059 1979.540331 36.760549 -603.614116 14.998671 407.112805 1643150 5614.335424
0.285000 0.285059 1803.479910 48.943422 -514.881658 -18.069748 191.172362 1764732 5614.335424
0.295000 0.295061 1701.615826 39.550522 -525.588905 1.363462 334.356258 1891668 5614.335424
0.305000 0.305059 1594.789854 36.474304 -536.884405 11.674970 426.957735 2019726 5614.335424
0.315000 0.315054 1501.347655 40.924156 -505.036776 -4.904515 462.552105 2155020 5614.335424
0.325000 0.325048 1459.045570 39.653027 -519.142596 -7.203356 364.398329 2293034 5614.335424
0.335000 0.335048 1413.927119 48.870680 -534.637776 -11.912976 360.007454 2439828 5614.335424
0.345000 0.345052 1293.944297 41.358269 -531.775560 -3.411935 357.208162 2585862 5614.335424
0.355000 0.355052 1198.046722 46.099509 -480.027096 -14.073581 261.606982 2737956 5614.335424
0.365000 0.365046 1145.737748 43.664207 -474.009889 3.857589 380.258199 2891004 5614.335424
0.375000 0.375041 1057.005909 47.972344 -509.028498 -3.492560 364.463185 3055430 5614.335424
0.385000 0.385044 986.491595 44.636114 -523.916189 -9.794770 412.693981 3221436 5614.335424
0.395000 0.395041 973.241768 39.961097 -452.310675 1.337108 402.660181 3386286 5614.335424
0.405000 0.405037 916.486274 51.388553 -529.917805 -5.336015 342.939229 3563388 5614.335424
0.415000 0.415036 866.841193 47.628465 -529.154637 1.046883 374.669341 3740486 5614.335424
0.425000 0.425038 804.492549 50.865048 -456.538235 -24.460975 382.447749 3926484 5614.335424
0.435000 0.435038 774.763726 46.030013 -359.351747 -1.723865 359.152148 4107420 5614.335424
0.445000 0.445035 772.267218 48.058257 -455.373135 -0.331943 386.001312 4303062 5614.335424
